918.6279999999999 10427817531 -0.2588169179420546 0.2926776482857385
918.668 10427817571 -0.279859786287037 0.2537123177546816
918.708 10427817611 -0.3027534325237405 0.217398390408757
918.7479999999999 10427817651 -0.3274645247012867 0.1841980281204588
918.788 10427817691 -0.3539379616275883 0.1545269569710083
918.828 10427817731 -0.3820960011571317 0.128745192226758
918.8679999999999 10427817771 -0.4118376299634529 0.1071506268605683
918.908 10427817811 -0.4430382939032472 0.08997479287124259
918.948 10427817851 -0.4755500831194225 0.07738005902594226
918.9879999999999 10427817891 -0.5092024274614455 0.06945758394237619
919.028 10427817931 -0.5438033385541663 0.06622541799451483
919.068 10427817971 -0.5791412343943507 0.06762630158835101
919.108 10427818011 -0.6149873759428739 0.07352502479447456
919.148 10427818051 -0.6510989329083208 0.08370579920891787
919.188 10427818091 -0.6872226729526864 0.09787076631472778
919.228 10427818131 -0.7230991947139936 0.1156410307788759
919.268 10427818171 -0.7584675486006491 0.1365614371145915
919.308 10427818211 -0.7930700528984274 0.1601098243441053
919.348 10427818251 -0.8266570986677805 0.1857107657971775
919.388 10427818291 -0.8589917208174172 0.2127529841383516
919.428 10427818331 -0.8898537035022758 0.2406089837534224
919.468 10427818371 -0.9190430114603783 0.2686551889677852
919.5079999999999 10427818411 -0.946382398478315 0.2962910385676494
919.548 10427818451 -0.9717191103744338 0.3229558811281464
919.588 10427818491 -0.9949256355575538 0.3481429328159599
919.6279999999999 10427818531 -1.015899453895697 0.3714099223808213
919.668 10427818571 -1.034561735594376 0.3923863875122473
919.708 10427818611 -1.050855012932792 0.4107779173213397
919.7479999999999 10427818651 -1.064740023872222 0.4263679130205709
919.788 10427818691 -1.076192164388053 0.4390176150401441
919.828 10427818731 -1.085198172111855 0.4486651915563633
919.8679999999999 10427818771 -1.091753669908277 0.455324541573817
919.908 10427818811 -1.095861958468877 0.4590840510038327
919.948 10427818851 -1.097534023007254 0.4601048820305713
919.9879999999999 10427818891 -1.096789302895421 0.4586177355553918
920.028 10427818931 -1.093656587835802 0.4549167951023235
920.068 10427818971 -1.088174549341087 0.4493499743826449
920.108 10427819011 -1.080391782931744 0.4423055068564316
920.148 10427819051 -1.070366573288204 0.4341958699334936
920.188 10427819091 -1.058166683402119 0.4254405711376844
920.228 10427819131 -1.043869280340563 0.4164493078618238
920.268 10427819171 -1.027560820970711 0.4076066583094277
920.308 10427819211 -1.00933657047566 0.3992590576355482
920.348 10427819251 -0.989299528519062 0.3917044942198417
920.388 10427819291 -0.9675588050482373 0.3851851077872537
920.428 10427819331 -0.9442277247023886 0.3798826393102276
920.468 10427819371 -0.9194220067272622 0.3759164799564747
920.5079999999999 10427819411 -0.8932582772243697 0.3733439409214192
920.548 10427819451 -0.8658530452749537 0.3721623485294002
920.588 10427819491 -0.8373222233962984 0.3723126279439864
920.6279999999999 10427819531 -0.807781291541354 0.37368410272903
920.668 10427819571 -0.7773461949065763 0.3761202749388868
920.708 10427819611 -0.7461349556466747 0.3794254064906439
920.7479999999999 10427819651 -0.7142697979560174 0.3833718423765186
920.788 10427819691 -0.6818794308776789 0.3877081393444568
920.828 10427819731 -0.6491010685403377 0.392168032588811
920.8679999999999 10427819771 -0.6160817839426186 0.3964799818413085
920.908 10427819811 -0.5829788448507557 0.4003765877174628
920.948 10427819851 -0.5499587490964338 0.4036028530839093
920.9879999999999 10427819891 -0.5171947845883707 0.4059223582027966
921.028 10427819931 -0.4848631165032679 0.4071209528059216
921.068 10427819971 -0.4531376428556559 0.407008291929139
921.108 10427820011 -0.4221841050974453 0.4054180853852918
921.148 10427820051 -0.3921541137383782 0.402208022122351
921.188 10427820091 -0.3631797838050157 0.3972599553597715
921.228 10427820131 -0.3353695536626963 0.3904803604425521
921.268 10427820171 -0.3088055329801725 0.3818006978849967
921.308 10427820211 -0.2835424850064842 0.3711773675877222
921.348 10427820251 -0.2596083732029451 0.3585913328984169
921.388 10427820291 -0.237006309335491 0.3440478939309959
921.428 10427820331 -0.2157176903626581 0.3275772023018246
921.468 10427820371 -0.1957062544717834 0.3092358607872732
921.5079999999999 10427820411 -0.1769227016391776 0.2891094659182477
921.548 10427820451 -0.1593094329634139 0.2673154311728434
921.588 10427820491 -0.1428049162181418 0.2440050886698613
921.6279999999999 10427820531 -0.1273472321122532 0.2193641076706283
921.668 10427820571 -0.1128765144685596 0.1936107695929391
921.708 10427820611 -0.09933623896059189 0.1669924276811597
921.7479999999999 10427820651 -0.08667357307488129 0.1397811410597749
921.788 10427820691 -0.07483919535444498 0.1122695936530417
921.828 10427820731 -0.06378705430893072 0.08476787551254821
921.8679999999999 10427820771 -0.05347442898434543 0.05760082377631606
921.908 10427820811 -0.04386240229082599 0.03110494068966945
921.948 10427820851 -0.03491657049162206 0.005623843888999744
921.9879999999999 10427820891 -0.02660762230101041 -0.01849824550457539
922.028 10427820931 -0.01891141112232803 -0.04092468758629902
922.068 10427820971 -0.0118083035263996 -0.06133538979154568
922.108 10427821011 -0.0052818353775497 -0.07943542158320995
922.148 10427821051 0.0006830614544823821 -0.09496223882678363
922.188 10427821091 0.006101877142739206 -0.1076908617345368
922.228 10427821131 0.01099203497528856 -0.1174369815064592
922.268 10427821171 0.01537389812381737 -0.1240586712307365
922.308 10427821211 0.01927125320204864 -0.1274577939308156
922.348 10427821251 0.02271135854442759 -0.1275820543117951
922.388 10427821291 0.02572465015405385 -0.1244280098188542
922.428 10427821331 0.02834414335179337 -0.1180446525738226
922.468 10427821371 0.03060452509532278 -0.1085367876757621
922.5079999999999 10427821411 0.03254095130814433 -0.09606742012064412
922.548 10427821451 0.03418764574500553 -0.08085848329498935
922.588 10427821491 0.03557649999745921 -0.06318929219581308
922.6279999999999 10427821531 0.03673594796522392 -0.04339215258601215
922.668 10427821571 0.03769040159311062 -0.02184483812081482
922.708 10427821611 0.03846047868230128 0.001039750577978204
922.7479999999999 10427821651 0.03906413022428904 0.02482573385020053
922.788 10427821691 0.03951859273755388 0.04906679553187598
922.828 10427821731 0.03984286874431699 0.07331785120967747
922.8679999999999 10427821771 0.04006021350572681 0.09714517723359506
922.908 10427821811 0.04019994857932346 0.1201350416910034
922.948 10427821851 0.04029792197786226 0.1419013165119049
922.9879999999999 10427821891 0.04039514286604758 0.1620926000630675
923.028 10427821931 0.04053450071469091 0.1803992061992662
923.068 10427821971 0.04075592660610811 0.1965601960890671
923.108 10427822011 0.04109074190079919 0.2103704738493872
923.148 10427822051 0.04155615938065352 0.221687702540006
923.188 10427822091 0.04215088521125718 0.2304383690262458
923.228 10427822131 0.04285251749535739 0.2366219230418528
923.268 10427822171 0.04361704477792743 0.240311849670304
923.308 10427822211 0.04438037258285058 0.2416529575985401
923.348 10427822251 0.04506157062993401 0.2408549060762234
923.388 10427822291 0.04556744828512229 0.2381826652508247
923.428 10427822331 0.04579804370101465 0.2339448945195959
923.468 10427822371 0.04565256370500851 0.228481107294195
923.5079999999999 10427822411 0.04503523615692605 0.2221481939228643
923.548 10427822451 0.04386052113202887 0.2153066534099221
923.588 10427822491 0.042057253445953 0.2083068513418591
923.6279999999999 10427822531 0.03957154335666252 0.2014757418081883
923.668 10427822571 0.03636853830841208 0.1951046773303803
923.708 10427822611 0.03243332887627374 0.1894390953258273
923.7479999999999 10427822651 0.02777131783388696 0.1846709128563168
923.788 10427822691 0.02240829630293409 0.1809342827801344
923.828 10427822731 0.01639035280042243 0.1783049410305096
923.8679999999999 10427822771 0.009783624373485971 0.1768028206547185
923.908 10427822811 0.002673794145159211 0.1763971285291712
923.948 10427822851 -0.004834847194752988 0.1770128554871617
923.9879999999999 10427822891 -0.01262100237787757 0.1785377856311573
924.028 10427822931 -0.02054883145550283 0.1808294171551131
924.068 10427822971 -0.02847138038622185 0.1837216321911791
924.108 10427823011 -0.03623492719198667 0.1870312487830919
924.148 10427823051 -0.04368403151463472 0.1905646182857241
924.188 10427823091 -0.05066692586248102 0.1941242247438893
924.228 10427823131 -0.05704080226964696 0.1975149749548829
924.268 10427823171 -0.06267656175555093 0.2005497334215107
924.308 10427823211 -0.06746271336225827 0.2030537476014815
924.348 10427823251 -0.07130830207135186 0.2048678883360517
924.388 10427823291 -0.07414493318492205 0.2058509604129621
924.428 10427823331 -0.07592804647856453 0.205881537295491
924.468 10427823371 -0.07663752862719594 0.204859719218071
924.5079999999999 10427823411 -0.07627760308297892 0.202708934214423
924.548 10427823451 -0.07487584908984213 0.1993775553526506
924.588 10427823491 -0.07248127923643771 0.1948398645143916
924.6279999999999 10427823531 -0.06916161290799286 0.1890958536040952
924.668 10427823571 -0.06500007469464343 0.1821695376037374
924.708 10427823611 -0.06009208681216147 0.1741057971181556
924.7479999999999 10427823651 -0.05454209487248624 0.1649661281672452
924.788 10427823691 -0.04846056940681986 0.1548238939348035
924.828 10427823731 -0.0419610952645212 0.1437596769106316
924.8679999999999 10427823771 -0.03515746618964522 0.1318571955330839
924.908 10427823811 -0.02816081857977083 0.1192001339501991
924.948 10427823851 -0.02107699397114845 0.1058702375866574
924.9879999999999 10427823891 -0.01400444528566435 0.09194709877018867
925.028 10427823931 -0.007033041896284955 0.07751002014768577
925.068 10427823971 -0.0002440314303226238 0.06264204054386593
925.108 10427824011 0.006288841085828038 0.04743564169626298
925.148 10427824051 0.01249741862367016 0.03199901788880002
925.188 10427824091 0.01831711150036453 0.01646135490707645
925.228 10427824131 0.02368558865273128 0.000975530868520562
925.268 10427824171 0.02854283077548206 -0.01428292770941568
925.308 10427824211 0.03283276648081867 -0.02912102110205871
925.348 10427824251 0.0365061938348081 -0.04333704024639803
925.388 10427824291 0.03952429972383179 -0.05673156699383541
925.428 10427824331 0.0418619675011728 -0.06911891014642925
925.468 10427824371 0.04351020246830363 -0.08033722102182624
925.5079999999999 10427824411 0.04447729440326444 -0.09025603572219738
925.548 10427824451 0.04478864648683011 -0.09878074802275459
925.588 10427824491 0.0444854318554117 -0.1058542134019971
925.6279999999999 10427824531 0.04362234337496684 -0.1114560500157323
925.668 10427824571 0.04226469145022 -0.1156001765231773
925.708 10427824611 0.04048504636025828 -0.1183309063118904
925.7479999999999 10427824651 0.03835959179512635 -0.1197177964592288
925.788 10427824691 0.03596438048966406 -0.1198495681532082
925.828 10427824731 0.03337172590440932 -0.1188276502502677
925.8679999999999 10427824771 0.03064697845468542 -0.1167599960766421
925.908 10427824811 0.02784590843890368 -0.1137556438401045
925.948 10427824851 0.02501287142206957 -0.1099201331733291
925.9879999999999 10427824891 0.02217988414055249 -0.1053516180217058
926.028 10427824931 0.01936667915852289 -0.1001375430415905
926.068 10427824971 0.01658170454163846 -0.0943520601830779
926.108 10427825011 0.01382388671464618 -0.08805470272800056
926.148 10427825051 0.01108483414256164 -0.08129089657090444
926.188 10427825091 0.008351107402679111 -0.07409452919775393
926.228 10427825131 0.005606256644674824 -0.06649215235312375
926.268 10427825171 0.00283249601061477 -0.05850781555456928
926.308 10427825211 1.206733586346842e-005 -0.05016735853357988
926.348 10427825251 -0.002871536137266994 -0.04150133316459148
926.388 10427825291 -0.005832305612937165 -0.03254638055153173
926.428 10427825331 -0.008880318356661823 -0.02334551957315221
926.468 10427825371 -0.01202023327726761 -0.01394813724177172
926.5079999999999 10427825411 -0.01524980456184355 -0.004410386306164349
926.548 10427825451 -0.01855858310246983 0.005203769687837589
926.588 10427825491 -0.02192697424891767 0.01482125440125852
926.6279999999999 10427825531 -0.02532578145462471 0.02435916459434427
926.668 10427825571 -0.02871630785339276 0.03372548159023316
926.708 10427825611 -0.03205104516550909 0.04282154999623922
926.7479999999999 10427825651 -0.03527497255914033 0.05154593701683788
926.788 10427825691 -0.03832749666689789 0.0597987024654919
926.828 10427825731 -0.04114503869366686 0.06748496018290658
926.8679999999999 10427825771 -0.04366418234704377 0.07451695565883701
926.908 10427825811 -0.04582515104724629 0.08081452655844877
926.948 10427825851 -0.04757524117359141 0.08630440667382926
926.9879999999999 10427825891 -0.04887177116754814 0.09091909433028314
927.028 10427825931 -0.04968416374651637 0.094595900042867
927.068 10427825971 -0.04999495877922052 0.09727653086528255
927.108 10427826011 -0.04979979849402121 0.0989074095605086
927.148 10427826051 -0.04910664283649541 0.09944092881462947
927.188 10427826091 -0.04793458217720847 0.0988378701522967
927.228 10427826131 -0.04631259149136498 0.09707111691792643
927.268 10427826171 -0.04427844557970848 0.09413052881233583
927.308 10427826211 -0.04187784325873326 0.09002850187486008
927.348 10427826251 -0.03916361930593724 0.08480541597275376
927.388 10427826291 -0.0361948065402954 0.07853397339141145
927.428 10427826331 -0.03303530374206613 0.07132146527174962
927.468 10427826371 -0.02975203605433064 0.06330931688818219
927.5079999999999 10427826411 -0.0264127135692067 0.05466975537503637
927.548 10427826451 -0.02308348432608534 0.0455998951339861
927.588 10427826491 -0.01982683316253375 0.03631378634080038
927.6279999999999 10427826531 -0.01669997633785527 0.02703305650267323
927.668 10427826571 -0.01375381651035213 0.01797686355680174
927.708 10427826611 -0.01103236020639492 0.009352055708058967
927.7479999999999 10427826651 -0.008572423797130661 0.001344557448699798
927.788 10427826691 -0.006403453948494588 -0.005887169922385691
927.828 10427826731 -0.004547317807867235 -0.01221628356579237
927.8679999999999 10427826771 -0.003017954367588623 -0.01754969455595565
927.908 10427826811 -0.001820839790980706 -0.0218289666688554
927.948 10427826851 -0.0009523255732064198 -0.02503066279184997
927.9879999999999 10427826891 -0.0003990379082825874 -0.02716627536132258
928.028 10427826931 -0.0001376164957532263 -0.02828126381766819
928.068 10427826971 -0.0001350554936654931 -0.02845249728837283
928.108 10427827011 -0.000349772130477316 -0.02778375374389294
928.148 10427827051 -0.0007333298782514415 -0.02639962164355045
928.188 10427827091 -0.001232590850421371 -0.02443870447731141
928.228 10427827131 -0.001792045793563432 -0.02204709748925093
928.268 10427827171 -0.00235615750925292 -0.01937273850228546
928.308 10427827211 -0.002871664375704378 -0.01656077432027461
928.348 10427827251 -0.003289838976780034 -0.01374982144606307
928.388 10427827291 -0.00356866525782962 -0.01106895339454408
928.428 10427827331 -0.003674821636644763 -0.008635271414103913
928.468 10427827371 -0.003585275095481693 -0.006551933155274862
928.5079999999999 10427827411 -0.003288232357635613 -0.004906567177600843
928.548 10427827451 -0.00278320247889088 -0.003770122418818793
928.588 10427827491 -0.00208004641081504 -0.00319632044277386
928.6279999999999 10427827531 -0.00119711844898318 -0.003221874172937934
928.668 10427827571 -0.0001588572656039409 -0.003867450336257718
928.708 10427827611 0.001006667303774683 -0.005139050881643368
928.7479999999999 10427827651 0.002269792564227424 -0.007029248208952727
928.788 10427827691 0.00360065787400862 -0.009517719825613417
928.828 10427827731 0.004970028307919714 -0.01257086632283757
928.8679999999999 10427827771 0.006349846871979346 -0.01614085194771908
928.908 10427827811 0.007713880015760503 -0.02016491246955283
928.948 10427827851 0.009038717442040302 -0.02456593467334171
928.9879999999999 10427827891 0.01030516797032078 -0.029254963502006
929.028 10427827931 0.01149983378048897 -0.03413551851358219
929.068 10427827971 0.01261642881833855 -0.03910872447577226
929.108 10427828011 0.01365632247345666 -0.04407771884359039
929.148 10427828051 0.01462790972970737 -0.04894993606372589
929.188 10427828091 0.01554473845663298 -0.0536367325971707
929.228 10427828131 0.01642275576163717 -0.05805105859276344
929.268 10427828171 0.01727737506940476 -0.06210488433436497
929.308 10427828211 0.01812113770677933 -0.06570832200762741
929.348 10427828251 0.01896249920070623 -0.06877175890960292
929.388 10427828291 0.0198058342652811 -0.07121122973644105
929.428 10427828331 0.0206523545578082 -0.07295624478262877
929.468 10427828371 0.02150145718298084 -0.07395866861278246
929.5079999999999 10427828411 0.02235209516761303 -0.07420100424713177
929.548 10427828451 0.02320396050147043 -0.07370246796003611
929.588 10427828491 0.02405844520589185 -0.07252152334882087
929.6279999999999 10427828531 0.02491942039593085 -0.07075412547658694
929.668 10427828571 0.02579385621415273 -0.06852773676044077
929.708 10427828611 0.02669224453628449 -0.06599198910166089
929.7479999999999 10427828651 0.02762872886746795 -0.06330744516116407
929.788 10427828691 0.0286208210380525 -0.06063413274779979
929.828 10427828731 0.02968859727711193 -0.05812135947558009
929.8679999999999 10427828771 0.03085330977240369 -0.05589979150195058
929.908 10427828811 0.032135428963128 -0.0540760548737639
929.948 10427828851 0.03355226185128387 -0.05272948840246697
929.9879999999999 10427828891 0.03511545362052752 -0.05191042454337871
930.028 10427828931 0.03682879448315912 -0.05163954843388064
930.068 10427828971 0.03868673315138611 -0.05190826463364326
930.108 10427829011 0.04067382888901028 -0.05268027084893619
930.148 10427829051 0.04276512915621578 -0.05389449465281139
930.188 10427829091 0.04492723759445852 -0.05546920093527095
930.228 10427829131 0.0471197096454798 -0.05730662995920196
930.268 10427829171 0.04929642525694292 -0.05929728146443815
930.308 10427829211 0.05140675412275333 -0.0613231485375595
930.348 10427829251 0.05339659829093371 -0.0632598105855639
930.388 10427829291 0.05520963989926973 -0.0649780265008142
930.428 10427829331 0.05678918501164354 -0.06634592783858509
930.468 10427829371 0.05808080494882335 -0.06723283202441166
930.5079999999999 10427829411 0.05903561123220213 -0.06751508269969454
930.548 10427829451 0.05961365391628948 -0.06708343637670731
930.588 10427829491 0.05978679257597921 -0.06585074255389088
930.6279999999999 10427829531 0.05954051208356839 -0.06375836300761258
930.668 10427829571 0.05887444889472645 -0.06078009024745288
930.708 10427829611 0.05780169782009868 -0.05692310118194219
930.7479999999999 10427829651 0.05634716468998269 -0.05222634768812564
930.788 10427829691 0.05454529266205454 -0.04675736722644112
930.828 10427829731 0.05243746576682953 -0.04060861191087161
930.8679999999999 10427829771 0.05006933531194732 -0.03389409667287782
930.908 10427829811 0.04748824390212816 -0.02674665363617599
930.948 10427829851 0.04474084178614923 -0.01931556786433195
930.9879999999999 10427829891 0.04187091957908468 -0.01176401831092147
931.028 10427829931 0.03891746143429503 -0.004265645522247507
931.068 10427829971 0.0359129918059584 0.003000249846941651
931.108 10427830011 0.03288243795133081 0.009854941794224732
931.148 10427830051 0.02984287371557177 0.01612748621872903
931.188 10427830091 0.0268045158330253 0.0216620679758822
931.228 10427830131 0.02377312505220216 0.02632461336726127
931.268 10427830171 0.02075356654061809 0.03000804910605397
931.308 10427830211 0.01775388516269985 0.03263593653453342
931.348 10427830251 0.0147890554766104 0.03416445396500255
931.388 10427830291 0.01188366806426867 0.03458279672227582
931.428 10427830331 0.009073139108654097 0.03391211485413411
931.468 10427830371 0.006403398554416841 0.0322032296698773
931.5079999999999 10427830411 0.003929266322488701 0.02953355893676305
931.548 10427830451 0.001711828937342905 0.02600378536489768
931.588 10427830491 -0.0001848423099416679 0.02173465686815038
931.6279999999999 10427830531 -0.001697243252734726 0.01686391868844068
931.668 10427830571 -0.002765791773619462 0.01154296851566309
931.708 10427830611 -0.003337479136906313 0.005932651253657164
931.7479999999999 10427830651 -0.003367384881534299 0.0001977620203880095
931.788 10427830691 -0.002818812922908755 -0.005499787360324902
931.828 10427830731 -0.001662044650614295 -0.0110087235018934
931.8679999999999 10427830771 0.0001280864123104181 -0.01619627925451546
931.908 10427830811 0.002575440159060659 -0.02095513595942702
931.948 10427830851 0.005706160330702681 -0.0252084114313631
931.9879999999999 10427830891 0.009552052238878034 -0.0289119579228418
932.028 10427830931 0.01415319709982106 -0.03205379542911816
932.068 10427830971 0.01955941393822321 -0.03465120886182761
932.108 10427831011 0.02583048209628409 -0.03674663302713641
932.148 10427831051 0.03303536021378707 -0.03840366703085275
932.188 10427831091 0.04125083556626071 -0.03970428947851503
932.228 10427831131 0.05056003984301342 -0.04074772229001851
932.268 10427831171 0.06105111127728579 -0.04165070142562562
932.308 10427831211 0.07281607699766469 -0.04254843497209362
932.348 10427831251 0.08594988250179866 -0.04359541762979395
932.388 10427831291 0.1005494534657518 -0.04496550242510183
932.428 10427831331 0.1167127043823932 -0.04685100504964563
932.468 10427831371 0.1345374362573985 -0.04946086319200446
932.5079999999999 10427831411 0.1541200503411222 -0.05301785088482076
932.548 10427831451 0.1755539707975705 -0.05775467362395896
932.588 10427831491 0.1989276708492028 -0.06390872015281862
932.6279999999999 10427831531 0.2243222488232315 -0.07171549078905763
932.668 10427831571 0.2518085526660079 -0.08140115781468295
932.708 10427831611 0.2814438455185595 -0.09317505873919069
932.7479999999999 10427831651 0.3132679469768582 -0.1072229464738784
932.788 10427831691 0.3472987483217606 -0.1237014960514298
932.828 10427831731 0.3835270579162595 -0.1427340662634473
932.8679999999999 10427831771 0.4219108947879367 -0.1644072853336242
932.908 10427831811 0.4623695601340121 -0.1887678663485274
932.948 10427831851 0.5047779978232435 -0.2158192051646243
932.9879999999999 10427831891 0.5489620342768662 -0.2455176527691801
933.028 10427831931 0.594695033101611 -0.277768703090153
933.068 10427831971 0.6416963439431981 -0.3124235978868759
933.108 10427832011 0.6896317557343138 -0.3492770545814214
933.148 10427832051 0.7381160604601362 -0.3880670129554081
933.188 10427832091 0.7867178042990276 -0.4284773950347376
933.228 10427832131 0.83496629297598 -0.4701447236103025
933.268 10427832171 0.8823608639022588 -0.5126689764092696
933.308 10427832211 0.9283823145319341 -0.5556283511073109
933.348 10427832251 0.9725061988903533 -0.5985968505047365
933.388 10427832291 1.014217501050263 -0.6411629329344106
933.428 10427832331 1.053025996179558 -0.6829470784669286
933.468 10427832371 1.088481456837333 -0.723616180298062
933.5079999999999 10427832411 1.120187804713263 -0.7628932831470753
933.548 10427832451 1.147815382252229 -0.8005622235943146
933.588 10427832491 1.171110712311523 -0.8364677894450867
933.6279999999999 10427832531 1.189903357305331 -0.8705126402507171
933.668 10427832571 1.204109695237422 -0.9026521769504079
933.708 10427832611 1.213733560410847 -0.932887989818767
933.7479999999999 10427832651 1.218863790378608 -0.9612599450336774
933.788 10427832691 1.219668849019943 -0.9878368561716708
933.828 10427832731 1.216388881041228 -1.012706116822266
933.8679999999999 10427832771 1.209325733763361 -1.035963292653457
933.908 10427832811 1.198831563670705 -1.057702984692111
933.948 10427832851 1.185296594861603 -1.078012036765041
933.9879999999999 10427832891 1.169136482619191 -1.096965538749552
934.028 10427832931 1.150779672291413 -1.114625449350045
934.068 10427832971 1.130655192254063 -1.131041282178095
934.108 10427833011 1.109181435102293 -1.146252164476385
934.148 10427833051 1.086756553062486 -1.160289556888649
934.188 10427833091 1.063751031862121 -1.173179951269155
934.228 10427833131 1.040502794358707 -1.184946994706911
934.268 10427833171 1.017314869966838 -1.195612775711169
934.308 10427833211 0.9944553320359783 -1.205198385458279
934.348 10427833251 0.9721589410223959 -1.213724157698835
934.388 10427833291 0.9506297976746894 -1.221210044141335
934.428 10427833331 0.930044314463617 -1.227676382882463
934.468 10427833371 0.910553912728738 -1.233144984191046
934.5079999999999 10427833411 0.8922869946841417 -1.237640157756494
934.548 10427833451 0.8753498918066008 -1.241189169334841
934.588 10427833491 0.8598266407808543 -1.243821692771414
934.6279999999999 10427833531 0.8457775766076572 -1.245568076006787
934.668 10427833571 0.8332368583052081 -1.246456556897002
934.708 10427833611 0.8222091685546931 -1.246509818319594
934.7479999999999 10427833651 0.8126659732596602 -1.245741387021143
934.788 10427833691 0.8045418928794904 -1.244152380446556
934.828 10427833731 0.7977318923614556 -1.241729083626658
934.8679999999999 10427833771 0.7920900744388155 -1.238441855256547
934.908 10427833811 0.7874307878467096 -1.234245855449811
934.948 10427833851 0.7835324960711136 -1.229083904567469
934.9879999999999 10427833891 0.7801444209276331 -1.222891356462487
935.028 10427833931 0.7769954859669926 -1.215602364452982
935.068 10427833971 0.7738046927559982 -1.207156636834956
935.108 10427834011 0.7702918985429663 -1.197505884845979
935.148 10427834051 0.7661880577199376 -1.186619518400774
935.188 10427834091 0.7612442574126708 -1.174489423405606
935.228 10427834131 0.7552391764890645 -1.16113364155928
935.268 10427834171 0.7479848116691978 -1.146598528868158
935.308 10427834211 0.7393304120473311 -1.130958776181206
935.348 10427834251 0.7291645907173472 -1.114314817066787
935.388 10427834291 0.717415612308243 -1.096787677295678
935.428 10427834331 0.704049932854214 -1.078512002408348
935.468 10427834371 0.6890691886770364 -1.059628479676656
935.5079999999999 10427834411 0.6725059546931613 -1.040276907471654
935.548 10427834451 0.6544186791320183 -1.020590765151027
935.588 10427834491 0.6348862339212745 -1.000693514181021
935.6279999999999 10427834531 0.61400250810238 -0.9806962863312816
935.668 10427834571 0.5918714400746964 -0.9606962714559878
935.708 10427834611 0.5686028542105992 -0.9407750584900961
935.7479999999999 10427834651 0.54430944113978 -0.9209963788057252
935.788 10427834691 0.519105176678395 -0.9014031005689365
935.828 10427834731 0.4931053748176909 -0.8820138551282536
935.8679999999999 10427834771 0.4664283917299132 -0.8628202021017283
935.908 10427834811 0.4391987569470136 -0.8437855478585317
935.948 10427834851 0.4115512566994304 -0.8248469354933864
935.9879999999999 10427834891 0.3836352874740244 -0.8059202913110258
936.028 10427834931 0.3556186689490078 -0.7869089141820163
936.068 10427834971 0.3276900777677155 -0.7677142224626556
936.108 10427835011 0.3000593693162687 -0.7482472992457098
936.148 10427835051 0.2729553188799352 -0.7284397279896405
936.188 10427835091 0.2466207067188295 -0.7082525267099354
936.228 10427835131 0.2213050884188594 -0.6876824711269346
936.268 10427835171 0.1972558949072525 -0.6667655149549348
936.308 10427835211 0.1747086116625679 -0.6455772280433509
936.348 10427835251 0.1538767236479377 -0.6242302206086452
936.388 10427835291 0.1349420014163374 -0.6028686031491426
936.428 10427835331 0.1180456595540654 -0.5816598376615725
936.468 10427835371 0.1032809675211555 -0.5607848626088771
936.5079999999999 10427835411 0.09068796826161293 -0.5404278841243819
936.548 10427835451 0.08025095713599792 -0.520767390592315
936.588 10427835491 0.07189920939788123 -0.5019695658781456
936.6279999999999 10427835531 0.06551109711672425 -0.4841844349881221
936.668 10427835571 0.06092126635181701 -0.4675441418457008
936.708 10427835611 0.05793007863849882 -0.4521621658748892
936.7479999999999 10427835651 0.05631420103942042 -0.4381322589963509
936.788 10427835691 0.05583716324259569 -0.4255263513009817
936.828 10427835731 0.05625891184199126 -0.4143913772355441
936.8679999999999 10427835771 0.05734379025341573 -0.4047456434081215
936.908 10427835811 0.05886678172348869 -0.3965757787846888
936.948 10427835851 0.06061811752875375 -0.3898353508181784
936.9879999999999 10427835891 0.06240644181224053 -0.3844459018935772
937.028 10427835931 0.06406072281755403 -0.3803005985746369
937.068 10427835971 0.06543109749633891 -0.3772700933969629
937.108 10427836011 0.06638884831112939 -0.375209760237589
937.148 10427836051 0.06682570608926387 -0.3739673043282593
937.188 10427836091 0.06665264590159872 -0.3733898956295501
937.228 10427836131 0.06579833684616526 -0.373330324180802
937.268 10427836171 0.06420746341712724 -0.3736520121743935
937.308 10427836211 0.06183924200265786 -0.3742328473045929
937.348 10427836251 0.05866653621977447 -0.3749677119136013
937.388 10427836291 0.05467593816406763 -0.3757694505341934
937.428 10427836331 0.04986898235677171 -0.3765680499793306
937.468 10427836371 0.0442643352663812 -0.3773080569001274
937.5079999999999 10427836411 0.03790047673526674 -0.37794461110868
937.548 10427836451 0.0308381958189854 -0.3784387525545137
937.588 10427836491 0.02316222887030611 -0.3787527463332564
937.6279999999999 10427836531 0.01498154586199865 -0.3788460568725617
937.668 10427836571 0.006428070686340283 -0.378672389022826
937.708 10427836611 -0.002346066917306264 -0.3781780334734118
937.7479999999999 10427836651 -0.01117237502069693 -0.3773016749810351
937.788 10427836691 -0.01987040686406378 -0.3759758089966615
937.828 10427836731 -0.02825221818421044 -0.3741298709696131
937.8679999999999 10427836771 -0.03612654500357142 -0.3716950316567682
937.908 10427836811 -0.04330261369936009 -0.3686103451007608
937.948 10427836851 -0.04959363725836671 -0.3648296539446768
937.9879999999999 10427836891 -0.05482000290399302 -0.3603285183119613
938.028 10427836931 -0.05881197456282335 -0.3551105212022105
938.068 10427836971 -0.06141159726494928 -0.3492125099995489
938.108 10427837011 -0.06247356751669146 -0.342708432052748
938.148 10427837051 -0.06186515038291932 -0.3357112795322114
938.188 10427837091 -0.05946563716136309 -0.3283723988481732
938.228 10427837131 -0.0551661289896549 -0.3208773527306201
938.268 10427837171 -0.04887044964954548 -0.3134378979969132
938.308 10427837211 -0.04049772807831974 -0.3062804414372484
938.348 10427837251 -0.0299867558825252 -0.2996322663528158
938.388 10427837291 -0.01730175924551595 -0.2937074832744533
938.428 10427837331 -0.002438850958392434 -0.2886947551315491
938.468 10427837371 0.01456775937008119 -0.2847483195174206
938.5079999999999 10427837411 0.03364066867050067 -0.2819828683715356
938.548 10427837451 0.05465590069961743 -0.2804718038866444
938.588 10427837491 0.07744146506290954 -0.2802476542393947
938.6279999999999 10427837531 0.1017777419698837 -0.2813032802876129
938.668 10427837571 0.1273994350354638 -0.2835929824840163
938.708 10427837611 0.153998925014086 -0.2870334862729917
938.7479999999999 10427837651 0.1812310886931293 -0.291505590695272
938.788 10427837691 0.2087198281896566 -0.2968575652440088
938.828 10427837731 0.2360665181898396 -0.302911007237374
938.8679999999999 10427837771 0.2628602920961768 -0.3094690514392174
938.908 10427837811 0.2886896791649304 -0.3163260238633275
938.948 10427837851 0.3131547683334592 -0.3232772588928783
938.9879999999999 10427837891 0.3358789552062805 -0.3301279625980684
939.028 10427837931 0.3565194492653185 -0.3367004960382038
939.068 10427837971 0.3747759859283227 -0.3428399223718378
939.108 10427838011 0.3903974668702985 -0.3484178718811081
939.148 10427838051 0.4031864487996829 -0.3533347420790891
939.188 10427838091 0.4130015035883948 -0.357520183380572
939.228 10427838131 0.4197575281516135 -0.3609319556469314
939.268 10427838171 0.4234241453993854 -0.3635536156759193
939.308 10427838211 0.4240224304798764 -0.3653918868521781
939.348 10427838251 0.4216203024185329 -0.3664746347241154
939.388 10427838291 0.4163270080074544 -0.3668499601546739
939.428 10427838331 0.4082871770284961 -0.3665862020889907
939.468 10427838371 0.3976749506509725 -0.365772034048063
939.5079999999999 10427838411 0.3846886734658184 -0.3645157025573559
939.548 10427838451 0.3695465582809261 -0.3629428416588799
939.588 10427838491 0.3524835419033651 -0.3611929319751232
939.6279999999999 10427838531 0.3337492600927419 -0.3594149646602185
939.668 10427838571 0.3136067600477121 -0.3577629605368184
939.708 10427838611 0.2923313500710891 -0.3563916882837344
939.7479999999999 10427838651 0.2702089428986125 -0.3554524602479774
939.788 10427838691 0.2475333990358369 -0.3550885640798199
939.828 10427838731 0.224602660677057 -0.3554298902976826
939.8679999999999 10427838771 0.2017137797232775 -0.3565866123842739
939.908 10427838811 0.1791571896989291 -0.3586422102805407
939.948 10427838851 0.1572107103476262 -0.3616465321946717
939.9879999999999 10427838891 0.136133815639184 -0.3656098312171239
940.028 10427838931 0.1161626648016879 -0.3704986951640561
940.068 10427838971 0.09750630719042787 -0.3762344845854309
940.108 10427839011 0.08034434286672076 -0.382694411783523
940.148 10427839051 0.06482618160540089 -0.3897149525705748
940.188 10427839091 0.0510719179626839 -0.3970970809890683
940.228 10427839131 0.03917472551564308 -0.4046129011916636
940.268 10427839171 0.02920455035037039 -0.4120135056640147
940.308 10427839211 0.02121275289960304 -0.4190381361487557
940.348 10427839251 0.01523723616943908 -0.4254248075766923
940.388 10427839291 0.01130753361065165 -0.4309223832996589
940.428 10427839331 0.009449316447672057 -0.4353036650598771
940.468 10427839371 0.009687812395064438 -0.4383785099361292
940.5079999999999 10427839411 0.01204970590103656 -0.440005530061335
940.548 10427839451 0.01656322367712569 -0.4401007846318952
940.588 10427839491 0.02325630482745702 -0.4386421314561454
940.6279999999999 10427839531 0.03215300239463829 -0.4356684977367886
940.668 10427839571 0.04326852879628811 -0.4312740857016674
940.708 10427839611 0.05660358631278891 -0.4255982673665638
940.7479999999999 10427839651 0.07213875613478392 -0.4188125100006556
940.788 10427839691 0.08982971975810912 -0.411106042996492
940.828 10427839731 0.1096039609154015 -0.4026721207357039
940.8679999999999 10427839771 0.1313593850404476 -0.3936966593284081
940.908 10427839811 0.1549650448363469 -0.3843506932186775
940.948 10427839851 0.1802639106637308 -0.3747874638881533
940.9879999999999 10427839891 0.2070773936266755 -0.3651440654465003
941.028 10427839931 0.2352111301137927 -0.3555466415129072
941.068 10427839971 0.2644613823707687 -0.3461174541689171
941.108 10427840011 0.2946213225680539 -0.3369819550481946
941.148 10427840051 0.3254864845939259 -0.3282743214434828
941.188 10427840091 0.3568588257183564 -0.3201406236475324
941.228 10427840131 0.3885491355109886 -0.312739576046206
941.268 10427840171 0.4203778858295588 -0.306241382366756
941.308 10427840211 0.4521749108125365 -0.3008253254013222
941.348 10427840251 0.4837784423927524 -0.2966765093884998
941.388 10427840291 0.5150339900600066 -0.2939817824515469
941.428 10427840331 0.5457934090223413 -0.2929246529668649
941.468 10427840371 0.5759143405923388 -0.2936791472926101
941.5079999999999 10427840411 0.6052600901621036 -0.2964029791202752
941.548 10427840451 0.6336999303674633 -0.3012308467203041
941.588 10427840491 0.6611097472567231 -0.3082688245275759
941.6279999999999 10427840531 0.6873728773906356 -0.3175905152269152
941.668 10427840571 0.7123809612287465 -0.3292350351052067
941.708 10427840611 0.7360347284535846 -0.3432064112886473
941.7479999999999 10427840651 0.75824483473385 -0.3594739010099336
941.788 10427840691 0.7789330779225763 -0.3779730891096868
941.828 10427840731 0.798034374274999 -0.3986080671466384
941.8679999999999 10427840771 0.8154996852464517 -0.4212552254516533
941.908 10427840811 0.8312997188719027 -0.4457690976388536
941.948 10427840851 0.8454288615359644 -0.4719903712676367
941.9879999999999 10427840891 0.8579085878187476 -0.4997557383206256
942.028 10427840931 0.8687896085341548 -0.5289087981733037
942.068 10427840971 0.8781522127755302 -0.5593108443146687
942.108 10427841011 0.8861045623277444 -0.5908501793699762
942.148 10427841051 0.8927790380889974 -0.6234486945956828
942.188 10427841091 0.8983270651266941 -0.6570648323647828
942.228 10427841131 0.9029130985616031 -0.6916926480949409
942.268 10427841171 0.9067085659620681 -0.7273573337033946
942.308 10427841211 0.9098864791824666 -0.7641080410470069
942.348 10427841251 0.9126171683087235 -0.8020090030307078
942.388 10427841291 0.9150652631218167 -0.8411298177664269
942.428 10427841331 0.9173877937873272 -0.8815355108229327
942.468 10427841371 0.9197331725948258 -0.923276800657945
942.5079999999999 10427841411 0.9222408052852537 -0.9663809084549377
942.548 10427841451 0.9250410525069411 -1.010843169222415
942.588 10427841491 0.9282551534158555 -1.056619486876651
942.6279999999999 10427841531 0.9319945809628818 -1.103619355566201
942.668 10427841571 0.9363592487074329 -1.151698958909917
942.708 10427841611 0.941434143001409 -1.200654002238025
942.7479999999999 10427841651 0.9472843218448517 -1.250212467370437
942.788 10427841691 0.9539486888491606 -1.30002815418867
942.828 10427841731 0.9614333373632028 -1.349676317296388
942.8679999999999 10427841771 0.9697054219175056 -1.398652693310451
942.908 10427841811 0.9786884164951205 -1.446376788608319
942.948 10427841851 0.9882593310309031 -1.492199691198834
942.9879999999999 10427841891 0.9982480985271138 -1.535416139861302
943.028 10427841931 1.008439032379341 -1.575280285094464
943.068 10427841971 1.018574069400041 -1.611024522654619
943.108 10427842011 1.028357487097984 -1.641880864513298
943.148 10427842051 1.037461882119084 -1.667104377579631
943.188 10427842091 1.045535346142052 -1.685998151176251
943.228 10427842131 1.052209896290972 -1.697939032961935
943.268 10427842171 1.057111250706315 -1.702403071868612
943.308 10427842211 1.059869950574766 -1.698989317589057
943.348 10427842251 1.060133606769742 -1.687440403966874
943.388 10427842291 1.057579731590362 -1.667658231943082
943.428 10427842331 1.051928312409304 -1.639713167138851
943.468 10427842371 1.042953134632273 -1.603845615570178
943.5079999999999 10427842411 1.030490951441855 -1.560459668601555
943.548 10427842451 1.014447893764688 -1.510109514901058
943.588 10427842491 0.9948028866542508 -1.453480149155089
943.6279999999999 10427842531 0.9716081575769923 -1.391364305256095
943.668 10427842571 0.9449871346667184 -1.324637513452478
943.708 10427842611 0.9151301554940344 -1.254232914752915
943.7479999999999 10427842651 0.8822884632142195 -1.181117101739061
943.788 10427842691 0.8467669585866456 -1.106267795348395
943.828 10427842731 0.8089161101304885 -1.030653605700351
943.8679999999999 10427842771 0.7691233345294367 -0.9552155842586901
943.908 10427842811 0.7278040809493453 -0.8808499645775891
943.948 10427842851 0.6853927963205625 -0.8083915563830947
943.9879999999999 10427842891 0.6423339179677206 -0.738597701086639
944.028 10427842931 0.5990730649436135 -0.6721333743099758
944.068 10427842971 0.5560487132087637 -0.6095586834579978
944.108 10427843011 0.5136848116365617 -0.5513203598332446
944.148 10427843051 0.4723849031131123 -0.4977486677749944
944.188 10427843091 0.4325282116402289 -0.4490604365706968
944.228 10427843131 0.3944677919665693 -0.4053678818576722
944.268 10427843171 0.3585303224895348 -0.3666918657027126
944.308 10427843211 0.3250166737742912 -0.332977569383682
944.348 10427843251 0.2942022045244753 -0.304110408612574
944.388 10427843291 0.2663358941342088 -0.2799304142100579
944.428 10427843331 0.2416378278657766 -0.2602440473085229
944.468 10427843371 0.2202950276506884 -0.2448331993501114
944.5079999999999 10427843411 0.2024560094110539 -0.2334616601569377
944.548 10427843451 0.1882246844704629 -0.225879554112992
944.588 10427843491 0.177654331219656 -0.2218262940801547
944.6279999999999 10427843531 0.1707423819600885 -0.2210326479601074
944.668 10427843571 0.1674267041688766 -0.2232225467878786
944.708 10427843611 0.1675838949514525 -0.2281151534108792
944.7479999999999 10427843651 0.1710298734194563 -0.2354274025592248
944.788 10427843691 0.1775228146963144 -0.2448768465927865
944.828 10427843731 0.1867682928516905 -0.2561844008314332
944.8679999999999 10427843771 0.1984264129460632 -0.2690765727633251
944.908 10427843811 0.2121206791828394 -0.2832869075883841
944.948 10427843851 0.227448300468462 -0.298556540816406
944.9879999999999 10427843891 0.2439915200479963 -0.3146338224841426
945.028 10427843931 0.2613293651023808 -0.3312729935326329
945.068 10427843971 0.2790490151275916 -0.3482319787295275
945.108 10427844011 0.2967559134706203 -0.365269630378702
945.148 10427844051 0.3140818987265396 -0.3821431900305017
945.188 10427844091 0.3306909964271346 -0.3986071202820157
945.228 10427844131 0.3462829376946693 -0.4144145043172742
945.268 10427844171 0.3605947698368068 -0.4293217429340592
945.308 10427844211 0.3734009902290488 -0.4430963793209017
945.348 10427844251 0.3845125167717965 -0.4555268749897184
945.388 10427844291 0.39377465625279 -0.4664324573536279
945.428 10427844331 0.4010641798100141 -0.4756710523359959
945.468 10427844371 0.4062856928704521 -0.4831438415827434
945.5079999999999 10427844411 0.409367636034789 -0.4887959415425289
945.548 10427844451 0.4102583966631757 -0.4926137682219329
945.588 10427844491 0.4089230970068242 -0.4946204895764446
945.6279999999999 10427844531 0.4053416170694435 -0.4948712954631266
945.668 10427844571 0.3995082759896898 -0.4934499016263741
945.708 10427844611 0.3914333245504301 -0.4904668687466215
945.7479999999999 10427844651 0.3811460299681891 -0.4860593170060744
945.788 10427844691 0.3686987472703995 -0.4803908716529757
945.828 10427844731 0.3541710834023386 -0.4736504444801126
945.8679999999999 10427844771 0.3376731753639811 -0.4660487153339902
945.908 10427844811 0.3193472637349459 -0.4578116795179846
945.948 10427844851 0.2993670951764369 -0.4491711098235416
945.9879999999999 10427844891 0.2779351140248977 -0.4403521721465477
946.028 10427844931 0.2552777829419432 -0.4315588424447426
946.068 10427844971 0.2316396186099492 -0.4229582778730838
946.108 10427845011 0.2072765951845132 -0.414665763286003
946.148 10427845051 0.1824494609360408 -0.4067320286319662
946.188 10427845091 0.1574172964866864 -0.39913448050836
946.228 10427845131 0.1324314224478564 -0.391773335776605
946.268 10427845171 0.1077296429132908 -0.3844730561678383
946.308 10427845211 0.0835308380916841 -0.3769890579209174
946.348 10427845251 0.06003006513879807 -0.3690194228442668
946.388 10427845291 0.03739450398961044 -0.3602211520036591
946.428 10427845331 0.01576069985593786 -0.3502302552207571
946.468 10427845371 -0.004766456065179166 -0.3386845948441021
946.5079999999999 10427845411 -0.02411271931989159 -0.3252479258575673
946.548 10427845451 -0.04223144458774391 -0.3096331234106453
946.588 10427845491 -0.05909882170620194 -0.2916223716037248
946.6279999999999 10427845531 -0.07470802932505001 -0.2710823114529768
946.668 10427845571 -0.08906311777225008 -0.247972892230583
946.708 10427845611 -0.1021734030600443 -0.2223497916639051
946.7479999999999 10427845651 -0.1140489222651427 -0.1943614088310884
946.788 10427845691 -0.1246971676901271 -0.1642421779160717
946.828 10427845731 -0.1341210382002437 -0.1323040370531647
946.8679999999999 10427845771 -0.1423178459900511 -0.0989273201921677
946.908 10427845811 -0.1492793109274913 -0.06455140007322051
946.948 10427845851 -0.1549926489886374 -0.02966454422735762
946.9879999999999 10427845891 -0.1594429424301145 0.005207919593980096
947.028 10427845931 -0.1626168492055698 0.03951770641333192
947.068 10427845971 -0.1645073849567416 0.07270967390561127
947.108 10427846011 -0.1651191315437557 0.1042387188879435
947.148 10427846051 -0.1644729628294249 0.1335857301711486
947.188 10427846091 -0.1626093437414279 0.1602709545463254
947.228 10427846131 -0.159589473806 0.1838638234274923
947.268 10427846171 -0.1554939634134772 0.2039893137568014
947.308 10427846211 -0.1504192557350035 0.2203319049771348
947.348 10427846251 -0.1444725007310887 0.2326387582938987
947.388 10427846291 -0.1377658898187117 0.2407236387770552
947.428 10427846331 -0.1304114640977382 0.2444723699082284
947.468 10427846371 -0.1225171399666469 0.2438496017934899
947.5079999999999 10427846411 -0.1141843033476181 0.2389058511052666
947.548 10427846451 -0.105506984827856 0.2297834334778158
947.588 10427846491 -0.0965724384323768 0.216720043525211
947.6279999999999 10427846531 -0.08746288612618453 0.2000491084807163
947.668 10427846571 -0.07825817087772073 0.1801964225260766
947.708 10427846611 -0.0690390079369855 0.1576728929046494
947.7479999999999 10427846651 -0.05989042647229399 0.1330635498988531
947.788 10427846691 -0.05090489971444003 0.1070133171799811
947.828 10427846731 -0.04218462764132555 0.08021032151286318
947.8679999999999 10427846771 -0.03384248503302679 0.05336762135250114
947.908 10427846811 -0.02600126909464563 0.027204136779203
947.948 10427846851 -0.01879105936030607 0.002425387043825055
947.9879999999999 10427846891 -0.01234473527380742 -0.02029546250578796
948.028 10427846931 -0.006791977623790748 -0.0403357016356317
948.068 10427846971 -0.002252367721120428 -0.05713962995779221
948.108 10427847011 0.001171590623122799 -0.07023272036618322
948.148 10427847051 0.003400653417537621 -0.07923254298768638
948.188 10427847091 0.004383501836985838 -0.08385585739763503
948.228 10427847131 0.004099483338743038 -0.08392179619007667
948.268 10427847171 0.002559404635922832 -0.07935167184787639
948.308 10427847211 -0.000195305367978963 -0.0701663618328827
948.348 10427847251 -0.004094532805423981 -0.05648224349791299
948.388 10427847291 -0.009041946946952529 -0.03850627059877213
948.428 10427847331 -0.0149175470751799 -0.01653026350240647
948.468 10427847371 -0.0215800372999972 0.009075843784879828
948.5079999999999 10427847411 -0.02886896589441294 0.03787203107811598
948.548 10427847451 -0.03660667389604 0.06935745917177529
948.588 10427847491 -0.04460012822228075 0.1029807062404295
948.6279999999999 10427847531 -0.05264271342979815 0.1381506833864926
948.668 10427847571 -0.06051606573471588 0.1742480983991969
948.708 10427847611 -0.0679920648776423 0.2106374941527393
948.7479999999999 10427847651 -0.07483513830126456 0.2466798993278237
948.788 10427847691 -0.08080504806047673 0.2817459728946498
948.828 10427847731 -0.08566029531816341 0.3152292603622378
948.8679999999999 10427847771 -0.08916218196096523 0.3465588903611476
948.908 10427847811 -0.0910794381179474 0.3752108099522838
948.948 10427847851 -0.09119320490758688 0.4007165771532522
948.9879999999999 10427847891 -0.08930209467421188 0.4226688847120051
949.028 10427847931 -0.0852270507626145 0.440723423145614
949.068 10427847971 -0.07881578568532899 0.4545973440820428
949.108 10427848011 -0.06994667375909991 0.464065258805151
949.148 10427848051 -0.05853209886432988 0.4689541307693885
949.188 10427848091 -0.0445213886148257 0.469138413893985
949.228 10427848131 -0.02790355306243942 0.4645363876109897
949.268 10427848171 -0.008710016347447199 0.4551080661774958
949.308 10427848211 0.01298266260343233 0.440854548466908
949.348 10427848251 0.03705039468908533 0.4218183272083306
949.388 10427848291 0.06332008982927553 0.3980838658556041
949.428 10427848331 0.09156980913499475 0.3697776350474341
949.468 10427848371 0.1215310877026341 0.3370668162923633
949.5079999999999 10427848411 0.1528936484358092 0.300156118049301
949.548 10427848451 0.1853123739599175 0.259282622758102
949.588 10427848491 0.2184161475474015 0.2147091402204138
949.6279999999999 10427848531 0.2518180434479276 0.1667169384417428
949.668 10427848571 0.2851262878869161 0.1155988069560504
949.708 10427848611 0.3179553626617722 0.06165322540645581
949.7479999999999 10427848651 0.3499365847986469 0.005180118411749806
949.788 10427848691 0.3807275280059588 -0.05352160553984056
949.828 10427848731 0.4100197994131251 -0.1141547693935657
949.8679999999999 10427848771 0.4375449150566728 -0.1764231032024275
949.908 10427848811 0.4630782364876258 -0.2400291575014066
949.948 10427848851 0.4864410638576284 -0.3046712227251291
949.9879999999999 10427848891 0.5075010297371989 -0.3700395374342362
950.028 10427848931 0.5261709683672159 -0.4358122354330319
950.068 10427848971 0.5424065063085379 -0.5016518107515231
950.108 10427849011 0.5562027182937195 -0.567203159395407
950.148 10427849051 0.5675902321140234 -0.6320941647853851
950.188 10427849091 0.5766310773285893 -0.6959391823802987
950.228 10427849131 0.583414381304427 -0.7583448755184944
950.268 10427849171 0.5880518395955082 -0.8189171374663132
950.308 10427849211 0.5906728324207623 -0.8772676836733226
950.348 10427849251 0.5914191338741522 -0.9330193409036404
950.388 10427849291 0.5904392897695217 -0.9858098063895
950.428 10427849331 0.5878828428689312 -1.035294320076642
950.468 10427849371 0.5838946310143884 -1.081148023850617
950.5079999999999 10427849411 0.5786093935076697 -1.123068709291449
950.548 10427849451 0.5721469248589464 -1.160780284126519
950.588 10427849491 0.5646080202441047 -1.194036810086435
950.6279999999999 10427849531 0.5560714450749441 -1.222626589437285
950.668 10427849571 0.5465921198672804 -1.246375667884276
950.708 10427849611 0.5362006607360597 -1.265150328386037
950.7479999999999 10427849651 0.52490438426514 -1.278858556277147
950.788 10427849691 0.5126898653145502 -1.287450816070827
950.828 10427849731 0.4995270772309003 -1.290920582703483
950.8679999999999 10427849771 0.4853750016348061 -1.28930489204494
950.908 10427849811 0.4701883786137802 -1.282684870139137
950.948 10427849851 0.4539250417571832 -1.271185935032846
950.9879999999999 10427849891 0.4365531323841503 -1.254977212990686
951.028 10427849931 0.4180574839831607 -1.234269702229583
951.068 10427849971 0.3984446308882227 -1.209312907567433
951.108 10427850011 0.3777461696085293 -1.180390072566621
951.148 10427850051 0.3560204700870885 -1.14781260009528
951.188 10427850091 0.3333528833732442 -1.111914501953668
951.228 10427850131 0.3098545924614186 -1.073047591265338
951.268 10427850171 0.2856601858393996 -1.03157775292674
951.308 10427850211 0.2609240228459558 -0.9878822855357756
951.348 10427850251 0.235815563629507 -0.9423481598320477
951.388 10427850291 0.2105139985467201 -0.8953710049574031
951.428 10427850331 0.1852026261209824 -0.8473545856694117
951.468 10427850371 0.1600634391709288 -0.7987104766839999
951.5079999999999 10427850411 0.1352723130661755 -0.7498576553529862
951.548 10427850451 0.1109951071434215 -0.7012218075382386
951.588 10427850491 0.08738491256157428 -0.6532341606634196
951.6279999999999 10427850531 0.06458058064364503 -0.6063295732686942
951.668 10427850571 0.042706514035405 -0.5609435264417428
951.708 10427850611 0.02187351333216771 -0.5175077292657079
951.7479999999999 10427850651 0.002180309331060347 -0.4764443071437703
951.788 10427850691 -0.01628465101949364 -0.4381588964796691
951.828 10427850731 -0.03344152996555629 -0.4030332888062837
951.8679999999999 10427850771 -0.04921774866508034 -0.3714184338353831
951.908 10427850811 -0.06354703837866919 -0.3436285238866875
951.948 10427850851 -0.07636894307107979 -0.3199365124038173
951.9879999999999 10427850891 -0.08762891365567893 -0.3005708936039475
952.028 10427850931 -0.09727925135197739 -0.285713142318567
952.068 10427850971 -0.1052811785555158 -0.2754950966288529
952.108 10427851011 -0.1116081676408045 -0.2699957985871498
952.148 10427851051 -0.1162503572983887 -0.2692377617371207
952.188 10427851091 -0.1192195272377732 -0.2731831094450957
952.228 10427851131 -0.1205538187501822 -0.2817303408770482
952.268 10427851171 -0.1203212915249697 -0.2947125238835332
952.308 10427851211 -0.1186215297485717 -0.3118974995931519
952.348 10427851251 -0.1155848043964332 -0.3329903369823298
952.388 10427851291 -0.1113686835914156 -0.3576379544777608
952.428 10427851331 -0.1061523931296419 -0.3854356334815678
952.468 10427851371 -0.1001296048483148 -0.4159350979181254
952.5079999999999 10427851411 -0.09350058877620031 -0.4486538510506977
952.548 10427851451 -0.08646472145828479 -0.483085426094448
952.588 10427851491 -0.07921417734677236 -0.5187100390872379
952.6279999999999 10427851531 -0.07192931576498406 -0.5550048881261234
952.668 10427851571 -0.06477592648937849 -0.5914532290230542
952.708 10427851611 -0.0579041959329452 -0.6275515720458595
952.7479999999999 10427851651 -0.05144904122233197 -0.6628148610044889
952.788 10427851691 -0.04553134702443643 -0.6967800328857973
952.828 10427851731 -0.040259630168771 -0.7290086044027896
952.8679999999999 10427851771 -0.03573172411002205 -0.7590888103210493
952.908 10427851811 -0.03203617521735737 -0.7866375046615419
952.948 10427851851 -0.02925314545167582 -0.8113017776540867
952.9879999999999 10427851891 -0.02745472218007469 -0.8327601628880791
953.028 10427851931 -0.02670465403203868 -0.8507233728134629
953.068 10427851971 -0.02705763849096728 -0.8649346062498593
953.108 10427852011 -0.02855833160626685 -0.8751695555551911
953.148 10427852051 -0.03124021314604449 -0.8812362826638069
953.188 10427852091 -0.03512437528582714 -0.8829751131869871
953.228 10427852131 -0.04021829438213267 -0.8802586061237707
953.268 10427852171 -0.04651471783307721 -0.8729915364172344
953.308 10427852211 -0.05399087820803997 -0.86111076852902
953.348 10427852251 -0.06260822802976243 -0.844584970785602
953.388 10427852291 -0.07231273245201708 -0.8234143230370524
953.428 10427852331 -0.08303553499937554 -0.7976306428307572
953.468 10427852371 -0.09469365325060841 -0.7672985898080146
953.5079999999999 10427852411 -0.1071903645900709 -0.7325186556734953
953.548 10427852451 -0.1204151178989013 -0.6934323688824159
953.588 10427852491 -0.1342430850765936 -0.6502295177021059
953.6279999999999 10427852531 -0.1485347346275293 -0.6031563936805281
953.668 10427852571 -0.1631359590585832 -0.5525233917512468
953.708 10427852611 -0.1778792542681975 -0.4987100613363077
953.7479999999999 10427852651 -0.1925862410275104 -0.4421659924349748
953.788 10427852691 -0.2070715076564877 -0.3834066387742088
953.828 10427852731 -0.2211474307210086 -0.3230041025996668
953.8679999999999 10427852771 -0.2346293738360082 -0.261573787630334
953.908 10427852811 -0.2473405322596994 -0.1997584537479857
953.948 10427852851 -0.259115727701386 -0.138211433854185
953.9879999999999 10427852891 -0.2698036774696478 -0.07758057557223427
954.028 10427852931 -0.2792676188278823 -0.01849397707677872
954.068 10427852971 -0.2873845530277814 0.03845196050810073
954.108 10427853011 -0.2940436547715082 0.09270201556332511
954.148 10427853051 -0.2991444951350016 0.1437491473714272
954.188 10427853091 -0.3025956615910924 0.1911390163907811
954.228 10427853131 -0.304314198258868 0.2344721256890356
954.268 10427853171 -0.3042260999684325 0.2734039825350695
954.308 10427853211 -0.3022679071964021 0.3076440853940765
954.348 10427853251 -0.2983892760403648 0.3369548352705807
954.388 10427853291 -0.2925562515236308 0.3611514555048177
954.428 10427853331 -0.2847548747715805 0.3801036541911079
954.468 10427853371 -0.274994721788321 0.3937392305998062
954.5079999999999 10427853411 -0.263312001629509 0.402049312609683
954.548 10427853451 -0.2497719113458665 0.4050945226096842
954.588 10427853491 -0.2344700263343931 0.40301109810563
954.6279999999999 10427853531 -0.2175325859589508 0.3960158244612233
954.668 10427853571 -0.1991156200942126 0.3844086261049816
954.708 10427853611 -0.1794029562976008 0.3685718873094352
954.7479999999999 10427853651 -0.1586032409114721 0.3489660205878863
954.788 10427853691 -0.1369461833426315 0.3261213270882626
954.828 10427853731 -0.1146782765092538 0.3006266102259189
954.8679999999999 10427853771 -0.0920582511351194 0.2731151881199048
954.908 10427853811 -0.06935248316275071 0.2442488987839582
954.948 10427853851 -0.04683049187899677 0.2147005187535266
954.9879999999999 10427853891 -0.02476056085077942 0.1851349113485558
955.028 10427853931 -0.003405429701232486 0.1561893521741345
955.068 10427853971 0.01698201397537107 0.1284538592777359
955.108 10427854011 0.03616306228592302 0.1024527935419658
955.148 10427854051 0.05391747171192433 0.07862921563338519
955.188 10427854091 0.07004757247342416 0.05733332337677345
955.228 10427854131 0.08438203029550249 0.03881578806189939
955.268 10427854171 0.09677907533109578 0.02322614270325695
955.308 10427854211 0.1071290294589514 0.01061575621975951
955.348 10427854251 0.1153560185814392 0.0009445111445588771
955.388 10427854291 0.1214188444315446 -0.005909837752349153
955.428 10427854331 0.1253110765541497 -0.01014053691253255
955.468 10427854371 0.1270604693317718 -0.01199961071128846
955.5079999999999 10427854411 0.126727797220086 -0.01178499610577842
955.548 10427854451 0.1244051523884319 -0.009827402113988469
955.588 10427854491 0.1202136948204108 -0.006477278618530791
955.6279999999999 10427854531 0.1143008129999229 -0.002092283550819796
955.668 10427854571 0.1068366598061036 0.002974460779771621
955.708 10427854611 0.09801008002819107 0.008385196837864029
955.7479999999999 10427854651 0.08802404395609938 0.01382742051034081
955.788 10427854691 0.0770908349568519 0.01902274295767332
955.828 10427854731 0.06542737049842322 0.02373447735095323
955.8679999999999 10427854771 0.05325110201870331 0.02777360781475882
955.908 10427854811 0.04077688480383386 0.03100288156708437
955.948 10427854851 0.02821503863751075 0.03333894864911301
955.9879999999999 10427854891 0.01577060465297211 0.03475255578448851
956.028 10427854931 0.003643629810820593 0.03526667679106239
956.068 10427854971 -0.007969786276497859 0.03495226394101709
956.108 10427855011 -0.01887599693491853 0.03392130940063939
956.148 10427855051 -0.02888223539392096 0.03231729887511758
956.188 10427855091 -0.03779540424705422 0.03030384503346939
956.228 10427855131 -0.04542170806836974 0.02805298137505019
956.268 10427855171 -0.05156753385369994 0.02573487869893781
956.308 10427855211 -0.05604174949149891 0.0235103843938195
956.348 10427855251 -0.05865925847414576 0.02152689041366042
956.388 10427855291 -0.05924537421442793 0.01991704041328157
956.428 10427855331 -0.0576405050786492 0.01879919298458529
956.468 10427855371 -0.05370479219447033 0.01827860637138729
956.5079999999999 10427855411 -0.04732259290791498 0.01844880256074027
956.548 10427855451 -0.03840687918165025 0.01939302371924102
956.588 10427855491 -0.02690361736616051 0.02118573647053652
956.6279999999999 10427855531 -0.01279603625133361 0.02389380028409877
956.668 10427855571 0.003891504881185946 0.02757659053633362
956.708 10427855611 0.02309043392366638 0.03228447896820922
956.7479999999999 10427855651 0.04468599670430947 0.03805571733291372
956.788 10427855691 0.06851656033409771 0.0449126017842078
956.828 10427855731 0.09437417173150899 0.05285827789691893
956.8679999999999 10427855771 0.1220062472158046 0.06187533867114118
956.908 10427855811 0.1511182576093335 0.07192656540280704
956.948 10427855851 0.1813773431300889 0.08295720978831923
956.9879999999999 10427855891 0.2124169070923214 0.09489760468792399
957.028 10427855931 0.2438423348713519 0.1076648753395575
957.068 10427855971 0.2752379833469123 0.1211630426651819
957.108 10427856011 0.306175430944889 0.1352815866931607
957.148 10427856051 0.3362227004822427 0.1498932289531672
957.188 10427856091 0.3649538942271363 0.1648520380556816
957.228 10427856131 0.3919585648053739 0.1799928837244803
957.268 10427856171 0.4168502542350719 0.1951328723553548
957.308 10427856211 0.4392739001006874 0.2100748993956446
957.348 10427856251 0.4589120841143182 0.2246130279346938
957.388 10427856291 0.4754902531173064 0.2385391379991073
957.428 10427856331 0.4887810321056491 0.2516502134480135
957.468 10427856371 0.4986076252277809 0.2637557286759047
957.5079999999999 10427856411 0.5048461714912793 0.2746847883803153
957.548 10427856451 0.5074268828021683 0.2842928184922026
957.588 10427856491 0.5063338682303392 0.2924675746891324
957.6279999999999 10427856531 0.501603689183443 0.2991340185825912
957.668 10427856571 0.4933228247778785 0.3042573552963874
957.708 10427856611 0.4816243263915685 0.307843432258855
957.7479999999999 10427856651 0.4666840142583092 0.3099358921888797
957.788 10427856691 0.4487166040062886 0.3106099274038497
957.828 10427856731 0.4279720874081552 0.309963046147814
957.8679999999999 10427856771 0.4047324821328258 0.3081037634653107
957.908 10427856811 0.3793087544496764 0.305139492892157
957.948 10427856851 0.3520374456876927 0.3011651624304093
957.9879999999999 10427856891 0.3232764473724855 0.2962541998031918
958.028 10427856931 0.2933995322809264 0.2904533994921071
958.068 10427856971 0.2627895912316723 0.2837826509901174
958.108 10427857011 0.2318308951014308 0.2762395977027526
958.148 10427857051 0.2009009520211448 0.2678082679165024
958.188 10427857091 0.1703625911985854 0.2584699477286455
958.228 10427857131 0.1405567908737273 0.2482143298216667
958.268 10427857171 0.1117965452610679 0.2370492927704018
958.308 10427857211 0.08436182864750672 0.2250083091463652
958.348 10427857251 0.05849556373910901 0.212155129518722
958.388 10427857291 0.03440049729646721 0.1985858457198373
958.428 10427857331 0.01223700703173668 0.184428688376418
958.468 10427857371 -0.007877993177886834 0.169842033528115
958.5079999999999 10427857411 -0.02587083641729202 0.1550111118143524
958.548 10427857451 -0.04170946650028599 0.1401438058177498
958.588 10427857491 -0.05540048784268099 0.1254656881260205
958.6279999999999 10427857531 -0.06698521540769016 0.1112141901463051
958.668 10427857571 -0.07653513934182703 0.09763166705439884
958.708 10427857611 -0.08414718335933309 0.08495727146350195
958.7479999999999 10427857651 -0.08993901617699521 0.07341795250002131
958.788 10427857691 -0.09404455234404326 0.06321936166222464
958.828 10427857731 -0.09660970372352173 0.05453769242117591
958.8679999999999 10427857771 -0.0977884158660895 0.04751332362565248
958.908 10427857811 -0.09773901740113471 0.04224662970557869
958.948 10427857851 -0.09662090934288355 0.03879574321952123
958.9879999999999 10427857891 -0.09459163391854894 0.03717574381812134
959.028 10427857931 -0.09180439819725614 0.03735885840706615
959.068 10427857971 -0.08840616192257503 0.03927563419848724
959.108 10427858011 -0.0845363757708034 0.04281732553588672
959.148 10427858051 -0.08032633416548997 0.04783963342452451
959.188 10427858091 -0.07589891198852365 0.05416749028563826
959.228 10427858131 -0.0713682953955818 0.06160013552507958
959.268 10427858171 -0.06683932564915458 0.06991566514263579
959.308 10427858211 -0.06240629789915796 0.07887466670462658
959.348 10427858251 -0.05815138690742344 0.08822319434584296
959.388 10427858291 -0.05414310864520721 0.0976957713930153
959.428 10427858331 -0.05043523638610035 0.1070191075103109
959.468 10427858371 -0.04706641102696751 0.1159168951305683
959.5079999999999 10427858411 -0.0440604735580774 0.1241156798328144
959.548 10427858451 -0.04142742686111864 0.1313515614700626
959.588 10427858491 -0.0391649148641396 0.1373773709530236
959.6279999999999 10427858531 -0.03726012840794555 0.1419698892880135
959.668 10427858571 -0.03569206101688122 0.1449365996015589
959.708 10427858611 -0.03443404209169022 0.1461214579987213
959.7479999999999 10427858651 -0.03345648704353117 0.1454093203722061
959.788 10427858691 -0.03272982761681564 0.1427289705663843
959.828 10427858731 -0.03222760312134574 0.1380550336974984
959.8679999999999 10427858771 -0.03192967288450099 0.131409217967232
959.908 10427858811 -0.03182543049488256 0.1228611690586874
959.948 10427858851 -0.03191678160995987 0.1125288304841127
959.9879999999999 10427858891 -0.03222055428191954 0.1005778683759694
960.028 10427858931 -0.03277000583744005 0.08721968680972247
960.068 10427858971 -0.03361517613199755 0.07270782208466295
960.108 10427859011 -0.03482195680760184 0.05733283331562733
960.148 10427859051 -0.03646983745545999 0.0414159602767389
960.188 10427859091 -0.03864833277957575 0.02530170212799569
960.228 10427859131 -0.04145212086130058 0.009349169645668447
960.268 10427859171 -0.044974989110785 -0.006078190844565414
960.308 10427859211 -0.04930283798102651 -0.02062484498773778
960.348 10427859251 -0.05450622700926585 -0.03395722795725627
960.388 10427859291 -0.06063318776492445 -0.04577863189759401
960.428 10427859331 -0.06770316127566299 -0.05584318302484354
960.468 10427859371 -0.07570285832006818 -0.06396689462255788
960.5079999999999 10427859411 -0.08458458079898823 -0.07003422670060309
960.548 10427859451 -0.0942671519890446 -0.07399961023369717
960.588 10427859491 -0.1046392023255117 -0.07588453544667786
960.6279999999999 10427859531 -0.1155642689716845 -0.07577151576638612
960.668 10427859571 -0.1268870629221305 -0.07379624556122028
960.708 10427859611 -0.1384403126315702 -0.07013874323184791
960.7479999999999 10427859651 -0.1500517104125253 -0.06501368642032153
960.788 10427859691 -0.1615505752827125 -0.05865991138809201
960.828 10427859731 -0.1727738780349536 -0.05132922326606799
960.8679999999999 10427859771 -0.1835712835733141 -0.04327498987317201
960.908 10427859811 -0.1938088971298932 -0.03474118040108235
960.948 10427859851 -0.2033714824515087 -0.02595249393408001
960.9879999999999 10427859891 -0.2121630578373554 -0.01710613743098439
961.028 10427859931 -0.2201059604821367 -0.008365768759038534
961.068 10427859971 -0.2271386764483375 0.0001419593821621615
961.108 10427860011 -0.2332129184902864 0.008328102272465127
961.148 10427860051 -0.2382905351837288 0.01613972442395747
961.188 10427860091 -0.242340800692977 0.02355664010717699
961.228 10427860131 -0.2453384634749271 0.03058758188736563
961.268 10427860171 -0.2472626839798105 0.03726644348491141
961.308 10427860211 -0.2480967554365277 0.04364857855715788
961.348 10427860251 -0.2478283574507553 0.04980654833396662
961.388 10427860291 -0.2464500870249575 0.05582458424344116
961.428 10427860331 -0.243960142847074 0.06179149310362816
961.468 10427860371 -0.2403632288778256 0.06779254145649291
961.5079999999999 10427860411 -0.2356718551130329 0.07390152331557616
961.548 10427860451 -0.2299081373035435 0.08017431779238843
961.588 10427860491 -0.2231059517635644 0.08664472189261109
961.6279999999999 10427860531 -0.215313035760771 0.09332254213186909
961.668 10427860571 -0.2065925027250268 0.1001933152329484
961.708 10427860611 -0.1970233175942126 0.1072188616455636
961.7479999999999 10427860651 -0.1866994773830989 0.1143380917376892
961.788 10427860691 -0.1757278560427985 0.1214678415346159
961.828 10427860731 -0.1642248478447151 0.128503809580972
961.8679999999999 10427860771 -0.1523120979166281 0.1353218427288496
961.908 10427860811 -0.1401117731123145 0.1417799248449396
961.948 10427860851 -0.1277419797774493 0.1477212926272356
961.9879999999999 10427860891 -0.1153129989310631 0.1529790870571555
962.028 10427860931 -0.1029249099589665 0.1573827577081329
962.068 10427860971 -0.09066690919063883 0.160766039331722
962.108 10427861011 -0.07861828325960525 0.1629757980737691
962.148 10427861051 -0.06685068785367268 0.1638805773929526
962.188 10427861091 -0.05543119719731617 0.1633774861619279
962.228 10427861131 -0.04442555179585506 0.1613963491347861
962.268 10427861171 -0.03390111012653537 0.1579007910760206
962.308 10427861211 -0.02392913799644233 0.1528868693033375
962.348 10427861251 -0.01458617470026495 0.1463805136988685
962.388 10427861291 -0.005954259522396521 0.1384349858199111
962.428 10427861331 0.001880192974819622 0.1291288550571857
962.468 10427861371 0.00882904930954697 0.1185640772456989
962.5079999999999 10427861411 0.01480670039415433 0.1068632339414636
962.548 10427861451 0.01973569727795515 0.09416515304239551
962.588 10427861491 0.02355324317080796 0.08061885225996719
962.6279999999999 10427861531 0.02621767464848059 0.06637660451580647
962.668 10427861571 0.02771388265343478 0.05158748598185422
962.708 10427861611 0.02805669811007703 0.03639280221085749
962.7479999999999 10427861651 0.02729161683115319 0.0209243230203742
962.788 10427861691 0.02549277203827301 0.005305510306254415
962.828 10427861731 0.02275860567585483 -0.01034482165578156
962.8679999999999 10427861771 0.01920606333219181 -0.02590748830680072
962.908 10427861811 0.01496424802399136 -0.04125781682296269
962.948 10427861851 0.01016833904527928 -0.05626156537931791
962.9879999999999 10427861891 0.00495431519828647 -0.07077270511818908
963.028 10427861931 -0.0005452682980541085 -0.08463351705103665
963.068 10427861971 -0.006204429067995433 -0.0976771214846428
963.108 10427862011 -0.0119059454046707 -0.1097323010349466
963.148 10427862051 -0.01754274233768899 -0.1206302814186526
963.188 10427862091 -0.02301863606009096 -0.1302129641692192
963.228 10427862131 -0.02824858517014589 -0.138341958338367
963.268 10427862171 -0.03315858263546976 -0.1449076500311844
963.308 10427862211 -0.03768529592135354 -0.1498374731363932
963.348 10427862251 -0.041775527688783 -0.1531024760743596
963.388 10427862291 -0.04538555668985617 -0.1547212392282324
963.428 10427862331 -0.04848045841867873 -0.1547602976494282
963.468 10427862371 -0.05103358365524573 -0.1533305925365926
963.5079999999999 10427862411 -0.0530264257828611 -0.1505801048175725
963.548 10427862451 -0.05444906776542828 -0.1466834928660553
963.588 10427862491 -0.05530125186662015 -0.1418299547308789
963.6279999999999 10427862531 -0.0555939029614727 -0.1362105214543092
963.668 10427862571 -0.05535072945257579 -0.1300057241038769
963.708 10427862611 -0.05460939408203748 -0.1233743906267331
963.7479999999999 10427862651 -0.05342174611044301 -0.1164444150228992
963.788 10427862691 -0.051852757370121 -0.1093065781997887
963.828 10427862731 -0.04997807163383725 -0.1020125336565046
963.8679999999999 10427862771 -0.04788036996065895 -0.09457759696825834
963.908 10427862811 -0.04564496838412391 -0.08698799801735183
963.948 10427862851 -0.0433551326279323 -0.07921113488541205
963.9879999999999 10427862891 -0.04108753402163827 -0.07120664151198276
964.028 10427862931 -0.03890816785082056 -0.06293611141552215
964.068 10427862971 -0.03686899386859086 -0.05437005737049476
964.108 10427863011 -0.03500554814070887 -0.04549171164703281
964.148 10427863051 -0.03333575005650678 -0.03629809385957082
964.188 10427863091 -0.0318600202807267 -0.02679913967797399
964.228 10427863131 -0.0305626364608289 -0.01701565314207793
964.268 10427863171 -0.02941405308382244 -0.006976657759703902
964.308 10427863211 -0.028373778430385 0.003283406440288067
964.348 10427863251 -0.02739337957055604 0.01372722344035468
964.388 10427863291 -0.02641928109184959 0.02431652791512527
964.428 10427863331 -0.02539520220268743 0.03501327387759534
964.468 10427863371 -0.02426427091727312 0.04578017061353972
964.5079999999999 10427863411 -0.02297098408413609 0.05658085132580688
964.548 10427863451 -0.02146320424044827 0.06737986321944214
964.588 10427863491 -0.01969431086359566 0.07814247700125267
964.6279999999999 10427863531 -0.0176255009800174 0.08883418443426375
964.668 10427863571 -0.01522810476992095 0.09941976284405305
964.708 10427863611 -0.0124856640003639 0.109861850424611
964.7479999999999 10427863651 -0.009395423145860163 0.1201189522626606
964.788 10427863691 -0.005968835477700406 0.1301426811298411
964.828 10427863731 -0.002230743709087288 0.1398740291763523
964.8679999999999 10427863771 0.001782914604068434 0.1492387615059726
964.908 10427863811 0.006028749417132231 0.1581425522116932
964.948 10427863851 0.01046051878155624 0.1664669365914243
964.9879999999999 10427863891 0.01503413324075496 0.1740672528871477
965.028 10427863931 0.01971245651033327 0.180773458585641
965.068 10427863971 0.02446932633509526 0.1863941921796694
965.108 10427864011 0.02929231411544667 0.1907239060922202
965.148 10427864051 0.03418389296870254 0.1935524560162803
965.188 10427864091 0.03916087823953485 0.1946762672322872
965.228 10427864131 0.04425221743021843 0.1939101203748099
965.268 10427864171 0.04949541342217112 0.1910986535142774
965.308 10427864211 0.05493204103520771 0.1861267683269847
965.348 10427864251 0.06060292658068744 0.1789281850175896
965.388 10427864291 0.06654356249615591 0.1694914353363517
965.428 10427864331 0.07278020595089108 0.1578627298344688
965.468 10427864371 0.0793268863334903 0.1441454965655756
965.5079999999999 10427864411 0.08618329250350405 0.1284969317144601
965.548 10427864451 0.09333332585426778 0.1111223941722492
965.588 10427864491 0.1007440725813826 0.09226861846911823
965.6279999999999 10427864531 0.1083650799612823 0.07221640956102822
965.668 10427864571 0.1161280414474605 0.05127293757157139
965.708 10427864611 0.1239471844048732 0.0297633626517399
965.7479999999999 10427864651 0.1317207162533732 0.008021549100820161
965.788 10427864691 0.1393335916296617 -0.01361998749139186
965.828 10427864731 0.1466616570452498 -0.03484031769701389
965.8679999999999 10427864771 0.1535769898402317 -0.05533972335839524
965.908 10427864811 0.1599540462347278 -0.07484796060141574
965.948 10427864851 0.1656761029510964 -0.09313054186549696
965.9879999999999 10427864891 0.1706414179047981 -0.1099924803202884
966.028 10427864931 0.1747685371641782 -0.1252790052499173
966.068 10427864971 0.1780002359513143 -0.1388730463686219
966.108 10427865011 0.1803057056872268 -0.1506899009429384
966.148 10427865051 0.1816807816379989 -0.1606702521887622
966.188 10427865091 0.1821462203304692 -0.1687732182708465
966.228 10427865131 0.181744242657142 -0.174971069695116
966.268 10427865171 0.1805337244018566 -0.1792466391990494
966.308 10427865211 0.1785845310211626 -0.1815935338049158
966.348 10427865251 0.1759715682804892 -0.1820184280865931
966.388 10427865291 0.1727691643933163 -0.1805442713126288
966.428 10427865331 0.169046402529139 -0.1772132834945637
966.468 10427865371 0.1648639575458376 -0.1720890398355388
966.5079999999999 10427865411 0.1602728361342288 -0.1652575015583856
966.548 10427865451 0.1553151795665055 -0.1568272739113152
966.588 10427865491 0.1500269903752595 -0.1469294834584269
966.6279999999999 10427865531 0.1444423296601926 -0.1357174735859016
966.668 10427865571 0.1385982599620761 -0.1233662263169895
966.708 10427865611 0.1325396577695341 -0.1100712918430994
966.7479999999999 10427865651 0.1263230526527695 -0.09604712412879214
966.788 10427865691 0.120018867258289 -0.08152490184851906
966.828 10427865731 0.1137117592286841 -0.06674991049086324
966.8679999999999 10427865771 0.1074990932993146 -0.05197831853003464
966.908 10427865811 0.1014878186043287 -0.03747290526752897
966.948 10427865851 0.09579017584329469 -0.02349728692920315
966.9879999999999 10427865891 0.09051874407675832 -0.0103085835797371
967.028 10427865931 0.08578138977712682 0.001850871803777394
967.068 10427865971 0.08167669119990385 0.01276163198282759
967.108 10427866011 0.07829033821050775 0.02223380810810286
967.148 10427866051 0.07569283552504484 0.03011151733376405
967.188 10427866091 0.07393860781457722 0.03627495254666824
967.228 10427866131 0.07306639085172706 0.0406403724222854
967.268 10427866171 0.07310064575574907 0.04315840196424002
967.308 10427866211 0.07405365597791729 0.04381095384153124
967.348 10427866251 0.07592791796478161 0.04260715781142763
967.388 10427866291 0.07871836898036103 0.03957905157526628
967.428 10427866331 0.08241390869904351 0.03477821733907574
967.468 10427866371 0.08699763633087816 0.0282746402550318
967.5079999999999 10427866411 0.09244534981971726 0.02015857260976552
967.548 10427866451 0.09872220248609612 0.0105452032793902
967.588 10427866491 0.1057779310121042 -0.0004191903552688219
967.6279999999999 10427866531 0.1135415697973945 -0.01255175809616871
967.668 10427866571 0.1219168221432236 -0.02563059826715988
967.708 10427866611 0.1307791521181264 -0.03939705210034537
967.7479999999999 10427866651 0.13997527094136 -0.05356338525903798
967.788 10427866691 0.1493252247674302 -0.06782513632302489
967.828 10427866731 0.158626928190744 -0.08187632646570307
967.8679999999999 10427866771 0.1676627766689539 -0.09542516318803986
967.908 10427866811 0.1762078357954379 -0.1082079062505644
967.948 10427866851 0.1840389577834793 -0.1199991100783682
967.9879999999999 10427866891 0.1909440200419588 -0.1306173149184537
968.028 10427866931 0.1967304135031196 -0.1399261612886607
968.068 10427866971 0.2012320190195948 -0.1478316082502682
968.108 10427867011 0.2043141940996056 -0.1542763438967724
968.148 10427867051 0.2058766544509757 -0.1592326399123431
968.188 10427867091 0.2058544595095016 -0.1626949221178076
968.228 10427867131 0.2042175205065441 -0.1646732330397672
968.268 10427867171 0.2009691173498577 -0.1651885015987679
968.308 10427867211 0.1961438519487617 -0.1642700910885738
968.348 10427867251 0.1898053241668114 -0.1619555620924017
968.388 10427867291 0.1820436468243711 -0.1582921185818273
968.428 10427867331 0.1729727683496129 -0.1533389216725939
968.468 10427867371 0.1627274877876748 -0.1471693934660239
968.5079999999999 10427867411 0.1514600580265192 -0.1398727757635416
968.548 10427867451 0.1393363842414063 -0.131554513099595
968.588 10427867491 0.1265319955377494 -0.1223354204764591
968.6279999999999 10427867531 0.1132281154510785 -0.1123499469686554
968.668 10427867571 0.09960819156062091 -0.1017440140861685
968.708 10427867611 0.08585512643086611 -0.09067281963889946
968.7479999999999 10427867651 0.07214922797437784 -0.07929871990477976
968.788 10427867691 0.0586666743908064 -0.06778901557260519
968.828 10427867731 0.04557816167581864 -0.05631334380005424
968.8679999999999 10427867771 0.03304739698435909 -0.04504046037957694
968.908 10427867811 0.02122918503930865 -0.03413437376661431
968.948 10427867851 0.01026697609214559 -0.02374991782260449
968.9879999999999 10427867891 0.0002898641074873395 -0.01402787206549668
969.028 10427867931 -0.008590875116463604 -0.005089755059147914
969.068 10427867971 -0.01628553360874701 0.002967416936044756
969.108 10427868011 -0.02272976394974086 0.01007575544652908
969.148 10427868051 -0.02788810868049955 0.01619947860357398
969.188 10427868091 -0.03175692355218261 0.02133511789078196
969.228 10427868131 -0.03436635234024154 0.02550823969149308
969.268 10427868171 -0.03578104075934199 0.02876681937696606
969.308 10427868211 -0.03609932114270029 0.03117233800532596
969.348 10427868251 -0.03545067025302382 0.03279026962798146
969.388 10427868291 -0.03399138489358379 0.03368168556620048
969.428 10427868331 -0.0318986606949976 0.03389730158649468
969.468 10427868371 -0.02936354800637347 0.03347466207685814
969.5079999999999 10427868411 -0.02658347554159952 0.03243850767790216
969.548 10427868451 -0.02375506778039749 0.03080386297265647
969.588 10427868491 -0.02106781271140005 0.02858109524452857
969.6279999999999 10427868531 -0.01869884030448921 0.02578213021441615
969.668 10427868571 -0.01680878963942836 0.02242708333873293
969.708 10427868611 -0.01553860705878719 0.01855068377999723
969.7479999999999 10427868651 -0.01500717541405478 0.01420797531085899
969.788 10427868691 -0.01530984745727494 0.009478830541631421
969.828 10427868731 -0.01651809294677407 0.004470787868293779
969.8679999999999 10427868771 -0.01868045187450217 -0.0006803176747187173
969.908 10427868811 -0.02182480678112039 -0.005812341274865939
969.948 10427868851 -0.02596172896998743 -0.01074145661130692
969.9879999999999 10427868891 -0.03108842084789818 -0.01526888288752005
970.028 10427868931 -0.03719263871370277 -0.0191886827368399
970.068 10427868971 -0.04425596157438783 -0.02229542960460861
970.108 10427869011 -0.05225587260675269 -0.02439074659351636
970.148 10427869051 -0.06116632892603296 -0.02528821615851878
970.188 10427869091 -0.07095677226685608 -0.02481679713389107
970.228 10427869131 -0.08158979989147391 -0.02282347232029632
970.268 10427869171 -0.09301788756537473 -0.01917617503540121
970.308 10427869211 -0.105179597012172 -0.01376794197927583
970.348 10427869251 -0.1179956387453736 -0.0065227147155227
970.388 10427869291 -0.1313650735130362 0.002597516910609803
970.428 10427869331 -0.1451619030500147 0.01358515711218217
970.468 10427869371 -0.1592323658794388 0.02638027881212616
970.5079999999999 10427869411 -0.1733933859437251 0.04086599728005458
970.548 10427869451 -0.1874327244907735 0.0568670223544998
970.588 10427869491 -0.2011113581224848 0.07415211419028769
970.6279999999999 10427869531 -0.2141684124506936 0.09244062794277955
970.668 10427869571 -0.2263286619466335 0.1114126429159074
970.708 10427869611 -0.2373122318082927 0.1307214914046635
970.7479999999999 10427869651 -0.2468457686376802 0.1500070691693054
970.788 10427869691 -0.2546740496094525 0.168908314691862
970.828 10427869731 -0.2605708620677619 0.1870737302641244
970.8679999999999 10427869771 -0.2643480821244694 0.2041696393564784
970.908 10427869811 -0.26586220935128 0.2198867233126032
970.948 10427869851 -0.2650180698636674 0.2339458763119464
970.9879999999999 10427869891 -0.2617698254639188 0.2461042831297004
971.028 10427869931 -0.2561197021591193 0.2561618802654204
971.068 10427869971 -0.2481149490631708 0.2639673813490917
971.108 10427870011 -0.2378435147452816 0.2694223742228143
971.148 10427870051 -0.2254288743012101 0.2724820283048116
971.188 10427870091 -0.2110244270476368 0.2731517208403839
971.228 10427870131 -0.1948079228217311 0.2714800630778661
971.268 10427870171 -0.1769764145606269 0.2675498622504292
971.308 10427870211 -0.1577422009542631 0.2614690525361303
971.348 10427870251 -0.1373300677052532 0.2533634058364723
971.388 10427870291 -0.1159758719574897 0.2433720364804643
971.428 10427870331 -0.09392620948066816 0.2316456823452303
971.468 10427870371 -0.07143865415524651 0.2183468758169732
971.5079999999999 10427870411 -0.04878195335582012 0.2036507448990565
971.548 10427870451 -0.02623563471580505 0.1877454258575125
971.588 10427870491 -0.004088668983691175 0.170831711195546
971.6279999999999 10427870531 0.01736298804093116 0.1531221472005551
971.668 10427870571 0.0378200813775002 0.1348399558667857
971.708 10427870611 0.05698509572331318 0.1162178648807178
971.7479999999999 10427870651 0.07456876406643342 0.0974964947331458
971.788 10427870691 0.09029802702376534 0.0789217249269621
971.828 10427870731 0.1039251568449053 0.06074058449134362
971.8679999999999 10427870771 0.1152374431622048 0.04319559497402904
971.908 10427870811 0.1240665777005588 0.02651794432365586
971.948 10427870851 0.130296758052152 0.0109202256200273
971.9879999999999 10427870891 0.1338705933979484 -0.003410343851210488
972.028 10427870931 0.1347921143546955 -0.01631732900681027
972.068 10427870971 0.1331265035697946 -0.02767847058875523
972.108 10427871011 0.1289965160280273 -0.03740691959689354
972.148 10427871051 0.1225759085409486 -0.04545075311649303
972.188 10427871091 0.1140805072945797 -0.05179160478935233
972.228 10427871131 0.1037577678476783 -0.05644319914780781
972.268 10427871171 0.09187579463025543 -0.05945011987857037
972.308 10427871211 0.07871277914664598 -0.06088656024015493
972.348 10427871251 0.06454769293833419 -0.06085445787821913
972.388 10427871291 0.04965284676397319 -0.05948048918848305
972.428 10427871331 0.0342886265854243 -0.05691178892626315
972.468 10427871371 0.0187003766928403 -0.05331068267555395
972.5079999999999 10427871411 0.003117070120567453 -0.04884892602341048
972.548 10427871451 -0.01224884757956762 -0.0437018863565912
972.588 10427871491 -0.02720116010932375 -0.03804291576284593
972.6279999999999 10427871531 -0.04155975833809671 -0.03203803253400572
972.668 10427871571 -0.05516106379893938 -0.02584106530995185
972.708 10427871611 -0.06785901738635292 -0.01958959313038465
972.7479999999999 10427871651 -0.07952633142068707 -0.01340218434800626
972.788 10427871691 -0.09005552747308039 -0.007377400414544304
972.828 10427871731 -0.09935933300719309 -0.001594685295402846
972.8679999999999 10427871771 -0.1073702799315105 0.003883287320832001
972.908 10427871811 -0.1140397186279308 0.00900770802837301
972.948 10427871851 -0.1193367521554199 0.01374118182847106
972.9879999999999 10427871891 -0.1232476602233895 0.01805642101876026
973.028 10427871931 -0.1257761718631523 0.02193614546251387
973.068 10427871971 -0.1269445286318458 0.02537363457339695
973.108 10427872011 -0.1267948335861497 0.02837304444560384
973.148 10427872051 -0.1253899194083077 0.03094870032929085
973.188 10427872091 -0.1228130154193313 0.03312301091571222
973.228 10427872131 -0.1191657999625483 0.03492316481912213
973.268 10427872171 -0.1145648291918048 0.03637711389282061
973.308 10427872211 -0.1091366888464706 0.03750946694537156
973.348 10427872251 -0.1030124591669521 0.03833792767475955
973.388 10427872291 -0.09632220351608327 0.03887091347665718
973.428 10427872331 -0.08919018040748117 0.03910695302336096
973.468 10427872371 -0.08173133609831457 0.03903628187423777
973.5079999999999 10427872411 -0.07404939345287785 0.03864470103613909
973.548 10427872451 -0.06623656796253176 0.03791928817638704
973.588 10427872491 -0.05837466481377369 0.03685506161065638
973.6279999999999 10427872531 -0.05053708757292733 0.03546132593642962
973.668 10427872571 -0.04279116703966386 0.03376630991580727
973.708 10427872611 -0.03520023086024462 0.03181892933355673
973.7479999999999 10427872651 -0.02782497717619877 0.02968706321774919
973.788 10427872691 -0.02072395051428052 0.02745250280762558
973.828 10427872731 -0.01395318329650581 0.02520351028360929
973.8679999999999 10427872771 -0.007565283772356014 0.02302647777229796
973.908 10427872811 -0.001608343642309462 0.0209983441225134
973.948 10427872851 0.003875035229636794 0.01918115477931495
973.9879999999999 10427872891 0.008848503423096937 0.01761948364509738
974.028 10427872931 0.01328265097753207 0.0163405369881272
974.068 10427872971 0.01715585236733724 0.01535594334617012
974.108 10427873011 0.02045539035731548 0.01466387075740735
974.148 10427873051 0.02317870587688435 0.01425038664577439
974.188 10427873091 0.02533434590338912 0.01408972357757569
974.228 10427873131 0.02694207462244857 0.01414393242291387
974.268 10427873171 0.02803175123952905 0.01436290834492487
974.308 10427873211 0.02864090376672132 0.01468578605475998
974.348 10427873251 0.02881129366646689 0.01504427560805356
974.388 10427873291 0.02858502335865217 0.015367858965978
974.428 10427873331 0.02800081903133412 0.01559013695317172
974.468 10427873371 0.02709105332889648 0.01565519520307286
974.5079999999999 10427873411 0.02587993281808122 0.01552273923828043
974.548 10427873451 0.02438312143522027 0.01517093898046036
974.588 10427873491 0.02260891063050294 0.01459637136913816
974.6279999999999 10427873531 0.02056085513991869 0.01381107356638139
974.668 10427873571 0.01824155798025913 0.0128374007419682
974.708 10427873611 0.01565704355073829 0.01170194926512848
974.7479999999999 10427873651 0.01282098794035574 0.01043004423068294
974.788 10427873691 0.009758076419877521 0.009042042493750848
974.828 10427873731 0.006505962822400265 0.007552016492223116
974.8679999999999 10427873771 0.003115635153210997 0.00596855872233269
974.908 10427873811 -0.0003497006283177974 0.004296867529179019
974.948 10427873851 -0.003816926528072035 0.002541158480517551
974.9879999999999 10427873891 -0.007206165247007224 0.0007067302926466991
975.028 10427873931 -0.01043445563645373 -0.001198526090742897
975.068 10427873971 -0.01341967178824586 -0.003162964531317578
975.108 10427874011 -0.01608447207295247 -0.005169904035070993
975.148 10427874051 -0.01836014120754419 -0.007195772586649748
975.188 10427874091 -0.02019023335327479 -0.009207510847685178
975.228 10427874131 -0.02153388298405383 -0.0111595979911727
975.268 10427874171 -0.02236851214440709 -0.01299163079459559
975.308 10427874211 -0.02269150019361128 -0.01462773284504182
975.348 10427874251 -0.02252032944018082 -0.01597893944317614
975.388 10427874291 -0.02189087935534839 -0.01694900261706479
975.428 10427874331 -0.02085389009944724 -0.01744299750350887
975.468 10427874371 -0.01947001297802384 -0.01737715285025013
975.5079999999999 10427874411 -0.01780415743104153 -0.01668793019626057
975.548 10427874451 -0.01591994940615319 -0.01533869408508932
975.588 10427874491 -0.01387502901585531 -0.01332313935223362
975.6279999999999 10427874531 -0.0117176746716408 -0.01066557379583106
975.668 10427874571 -0.009484915614138412 -0.007418851789780234
975.708 10427874611 -0.007201982629111798 -0.003661054327317618
975.7479999999999 10427874651 -0.004882750208390448 0.000508077219011776
975.788 10427874691 -0.002530803600658075 0.004970307661082292
975.828 10427874731 -0.0001408969781891967 0.009591495195835402
975.8679999999999 10427874771 0.002299261281181735 0.01422380542076349
975.908 10427874811 0.004806895707236592 0.01870792264976817
975.948 10427874851 0.007401821716500272 0.02287556257649643
975.9879999999999 10427874891 0.01010415130846995 0.02655243988693589
976.028 10427874931 0.01293241985187635 0.02956180109228113
976.068 10427874971 0.01590241838564013 0.03172875411476814
976.108 10427875011 0.01902677576027931 0.03288575602895211
976.148 10427875051 0.02231507811640689 0.03287951079040381
976.188 10427875091 0.02577416500501548 0.03157907950942615
976.228 10427875131 0.02940823725719165 0.02888439718719107
976.268 10427875171 0.03321850604950978 0.02473397682788108
976.308 10427875211 0.03720224488920234 0.01911065576761394
976.348 10427875251 0.0413512415331149 0.01204483758974546
976.388 10427875291 0.0456497708133668 0.003615528167836933
976.428 10427875331 0.05007231854623698 -0.006049936975246297
976.468 10427875371 0.05458138845024384 -0.01677665123986699
976.5079999999999 10427875411 0.05912582041831332 -0.02834333447332389
976.548 10427875451 0.06364010978025539 -0.04048492620968448
976.588 10427875491 0.06804518846636203 -0.05289806766640194
976.6279999999999 10427875531 0.0722509768190507 -0.06525059655889477
976.668 10427875571 0.07616075900984512 -0.07719503604867121
976.708 10427875611 0.07967713100517207 -0.08838475736292162
976.7479999999999 10427875651 0.08270897327260192 -0.09849071633026406
976.788 10427875691 0.08517865828624392 -0.1072167159308191
976.828 10427875731 0.08702856966774791 -0.1143118262797025
976.8679999999999 10427875771 0.08822604262124423 -0.1195794169801474
976.908 10427875811 0.08876605359310899 -0.1228828293949539
976.948 10427875851 0.08867133785439513 -0.124147931753186
976.9879999999999 10427875891 0.08798999693643471 -0.1233627909210675
977.028 10427875931 0.08679099316262756 -0.1205746635636344
977.068 10427875971 0.08515818425332235 -0.1158845808401116
977.108 10427876011 0.08318371327543807 -0.1094399684135107
977.148 10427876051 0.08096161259034559 -0.1014259200820458
977.188 10427876091 0.07858238120877312 -0.09205584380731416
977.228 10427876131 0.07612906286456105 -0.08156218389449441
977.268 10427876171 0.07367504382537611 -0.07018780260005379
977.308 10427876211 0.07128348906147561 -0.05817842385667162
977.348 10427876251 0.06900810868363205 -0.04577633958722564
977.388 10427876291 0.06689480389757253 -0.033215353059207
977.428 10427876331 0.06498365464742509 -0.02071669233229573
977.468 10427876371 0.06331067248210853 -0.008485468286364633
977.5079999999999 10427876411 0.06190879300067186 0.003292690710258233
977.548 10427876451 0.06080776294962106 0.0144549216255673
977.588 10427876491 0.06003286167442973 0.02486411770119134
977.6279999999999 10427876531 0.05960269010911852 0.03441129621436284
977.668 10427876571 0.0595264597035725 0.04301711359736798
977.708 10427876611 0.05980126814548881 0.05063248381971581
977.7479999999999 10427876651 0.06040977665989312 0.05723835661787566
977.788 10427876691 0.06131857050407388 0.06284467564000673
977.828 10427876731 0.06247736639454211 0.06748843544619027
977.8679999999999 10427876771 0.06381917682373527 0.07123069727584967
977.908 10427876811 0.06526154666612351 0.07415246475004074
977.948 10427876851 0.06670898994368399 0.07634944875276453
977.9879999999999 10427876891 0.06805671220332794 0.07792590396168279
978.028 10427876931 0.06919557315740911 0.0789878391004967
978.068 10427876971 0.07001803377971096 0.07963598244548412
978.108 10427877011 0.07042458774604216 0.0799589657158168
978.148 10427877051 0.07032997069050759 0.08002729836120796
978.188 10427877091 0.06966834903985797 0.07988879478675218
978.228 10427877131 0.06839676375589782 0.07956609860149598
978.268 10427877171 0.06649634352787717 0.0790567594087469
978.308 10427877211 0.06397115358739935 0.07833598267311805
978.348 10427877251 0.06084491970181644 0.07736180147274589
978.388 10427877291 0.05715616901249405 0.076082135938889
978.428 10427877331 0.05295250538281566 0.07444304698312931
978.468 10427877371 0.04828478434957273 0.07239736893298102
978.5079999999999 10427877411 0.04320190090342611 0.06991271573189177
978.548 10427877451 0.03774678476740938 0.06697762311619995
978.588 10427877491 0.03195403119789056 0.06360452155163038
978.6279999999999 10427877531 0.02584937921747353 0.05982859429349986
978.668 10427877571 0.01945097847817007 0.05570243452051722
978.708 10427877611 0.01277209182396385 0.05128749077197342
978.7479999999999 10427877651 0.005824651005212542 0.04664405857564108
978.788 10427877691 -0.00137698269930482 0.04182165349070635
978.828 10427877731 -0.008812575754279118 0.03685104384479569
978.8679999999999 10427877771 -0.01645318310820752 0.0317384471495446
978.908 10427877811 -0.02425897749690248 0.02646179999580863
978.948 10427877851 -0.0321776936463031 0.02096871360794921
978.9879999999999 10427877891 -0.04014361685150081 0.01517564143881158
979.028 10427877931 -0.04807707924446748 0.008967837493668814
979.068 10427877971 -0.05588446776177809 0.002199872210833505
979.108 10427878011 -0.06345878681573017 -0.005303226922679155
979.148 10427878051 -0.07068086584845755 -0.01374384758424501
979.188 10427878091 -0.07742134995096782 -0.02334819622482819
979.228 10427878131 -0.08354361858122023 -0.03436091788238425
979.268 10427878171 -0.08890769225471554 -0.04703800405939588
979.308 10427878211 -0.09337500999505402 -0.061638428056396
979.348 10427878251 -0.09681377456398517 -0.07841505432580279
979.388 10427878291 -0.09910447819554363 -0.09760520425339703
979.428 10427878331 -0.1001452739736187 -0.1194210694230277
979.468 10427878371 -0.09985697784067832 -0.1440401909686175
979.5079999999999 10427878411 -0.09818757631806155 -0.1715964437443449
979.548 10427878451 -0.09511613424010378 -0.2021721019993879
979.588 10427878491 -0.09065596177503502 -0.235791414846204
979.6279999999999 10427878531 -0.08485683765931655 -0.272415800325693
979.668 10427878571 -0.07780601699148809 -0.3119405912528748
979.708 10427878611 -0.06962771246618341 -0.3541934064618626
979.7479999999999 10427878651 -0.06048077983065186 -0.3989345298413905
979.788 10427878691 -0.05055449628707114 -0.44585983660145
979.828 10427878731 -0.04006257546092592 -0.4946066056993551
979.8679999999999 10427878771 -0.02923583860056011 -0.5447620651797001
979.908 10427878811 -0.01831415688997891 -0.5958740056812976
979.948 10427878851 -0.007538316887353755 -0.6474625462582263
979.9879999999999 10427878891 0.002857658853471918 -0.6990322386348479
980.028 10427878931 0.01265338852093802 -0.7500839935544279
980.068 10427878971 0.02164798863144711 -0.8001265376580505
980.108 10427879011 0.02966472938388253 -0.8486871247425443
980.148 10427879051 0.03655430090283864 -0.8953211363666779
980.188 10427879091 0.04219655250853614 -0.9396202212664624
980.228 10427879131 0.0465006943169221 -0.9812188114531913
980.268 10427879171 0.04940409899472721 -1.019799069520321
980.308 10427879211 0.0508699400033833 -1.055094377681776
980.348 10427879251 0.05088393726173265 -1.086891368075997
980.388 10427879291 0.04945049329968831 -1.115030403129111
980.428 10427879331 0.04658852620725001 -1.139404513117059
980.468 10427879371 0.04232732558848341 -1.15995704750121
980.5079999999999 10427879411 0.03670274011257899 -1.176678482680822
980.548 10427879451 0.02975394693602943 -1.189602762480545
980.588 10427879491 0.02152098980904046 -1.198803248510898
980.6279999999999 10427879531 0.01204323822144825 -1.204388068400415
980.668 10427879571 0.001358905901341446 -1.206494660252885
980.708 10427879611 -0.01049427765403306 -1.205283715447499
980.7479999999999 10427879651 -0.02347727017446481 -1.200933315070145
980.788 10427879691 -0.03754700700389088 -1.193634464843069
980.828 10427879731 -0.05265316881357427 -1.183589160186944
980.8679999999999 10427879771 -0.06873491366013997 -1.171011498207747
980.908 10427879811 -0.0857180643712732 -1.156131384341556
980.948 10427879851 -0.1035131885749665 -1.139199387628492
980.9879999999999 10427879891 -0.1220149205390107 -1.12049063156268
981.028 10427879931 -0.1411027318719899 -1.100305541854051
981.068 10427879971 -0.1606431395214238 -1.078965911431165
981.108 10427880011 -0.1804930776809069 -1.056805935762307
981.148 10427880051 -0.200503949831062 -1.034159213056957
981.188 10427880091 -0.2205258121487346 -1.011343687532824
981.228 10427880131 -0.2404112381204651 -0.9886467961520864
981.268 10427880171 -0.2600186014517139 -0.966312676577898
981.308 10427880211 -0.2792146825348954 -0.9445325438813506
981.348 10427880251 -0.2978765962418604 -0.9234386518732575
981.388 10427880291 -0.3158930809078219 -0.9031018358187528
981.428 10427880331 -0.3331652452006476 -0.8835324295071299
981.468 10427880371 -0.3496069775729212 -0.8646841642822741
981.5079999999999 10427880411 -0.365145346517071 -0.8464603750873339
981.548 10427880451 -0.3797213641359459 -0.8287215536430967
981.588 10427880491 -0.3932913686389727 -0.8112932258626415
981.6279999999999 10427880531 -0.4058290095242556 -0.7939734238765942
981.668 10427880571 -0.4173274945977174 -0.7765395708559487
981.708 10427880611 -0.427801517670014 -0.7587551208498113
981.7479999999999 10427880651 -0.4372882295697078 -0.7403765367382751
981.788 10427880691 -0.4458467664283026 -0.7211610588992917
981.828 10427880731 -0.4535561575587916 -0.700875305153879
981.8679999999999 10427880771 -0.4605118065819178 -0.6793042334673709
981.908 10427880811 -0.4668210686042468 -0.656259595215446
981.948 10427880851 -0.4725986374863166 -0.6315868706629804
981.9879999999999 10427880891 -0.4779624448709406 -0.6051698589045135
982.028 10427880931 -0.4830305536247028 -0.5769324814662009
982.068 10427880971 -0.4879191835379989 -0.5468377481590244
982.108 10427881011 -0.492741672863627 -0.5148840964241568
982.148 10427881051 -0.4976079747950191 -0.4810995049786024
982.188 10427881091 -0.5026242573079148 -0.4455340352834036
982.228 10427881131 -0.5078922854108006 -0.4082517745493303
982.268 10427881171 -0.5135084452359391 -0.3693233522799602
982.308 10427881211 -0.5195624467210123 -0.3288200763871972
982.348 10427881251 -0.5261358667072433 -0.2868102809424582
982.388 10427881291 -0.5333007521893002 -0.2433579092129761
982.428 10427881331 -0.5411185015032604 -0.1985229421520575
982.468 10427881371 -0.5496391859156895 -0.1523631670921875
982.5079999999999 10427881411 -0.5589013679691444 -0.1049369094249829
982.548 10427881451 -0.5689323363706502 -0.05630653391131592
982.588 10427881491 -0.5797485613417168 -0.006542573772299091
982.6279999999999 10427881531 -0.5913561355237917 0.04427180176808761
982.668 10427881571 -0.6037510174123638 0.09603650253101488
982.708 10427881611 -0.6169189899786872 0.1486310117404379
982.7479999999999 10427881651 -0.6308353171457463 0.2019119930002325
982.788 10427881691 -0.645464093841591 0.2557118133330387
982.828 10427881731 -0.660757271489795 0.309837333582059
982.8679999999999 10427881771 -0.6766533518420588 0.3640683081505339
982.908 10427881811 -0.6930757969626432 0.4181552397898668
982.948 10427881851 -0.7099312827262762 0.471817257612875
982.9879999999999 10427881891 -0.7271080085043771 0.52474110220393
983.028 10427881931 -0.7444743694593189 0.5765823486746291
983.068 10427881971 -0.761878397311329 0.626969590541453
983.108 10427882011 -0.7791484327639517 0.6755116476304115
983.148 10427882051 -0.7960954273727739 0.7218072111713543
983.188 10427882091 -0.8125170506050355 0.7654559408842763
983.228 10427882131 -0.8282034777399909 0.8060700305383032
983.268 10427882171 -0.8429445031207042 0.8432856045311099
983.308 10427882211 -0.8565375471901937 0.8767737116270408
983.348 10427882251 -0.8687961546475933 0.9062508053374604
983.388 10427882291 -0.8795585921849157 0.9314883373945886
983.428 10427882331 -0.888696079723579 0.9523206809670207
983.468 10427882371 -0.8961200760311615 0.9686504429944752
983.5079999999999 10427882411 -0.9017880016335735 0.9804505516622855
983.548 10427882451 -0.9057068999475427 0.9877631898143948
983.588 10427882491 -0.9079347900728184 0.9906962917431065
983.6279999999999 10427882531 -0.9085797377204258 0.9894185461510966
983.668 10427882571 -0.9077968467773808 0.984153565408357
983.708 10427882611 -0.905783432610616 0.975173372725723
983.7479999999999 10427882651 -0.9027726715494804 0.9627910468376325
983.788 10427882691 -0.8990261369528262 0.9473524498754858
983.828 10427882731 -0.8948258369863057 0.9292272752611346
983.8679999999999 10427882771 -0.8904665476003399 0.9087998495749392
983.908 10427882811 -0.88624924119533 0.8864600445659737
983.948 10427882851 -0.8824761814572633 0.8625944415985549
983.9879999999999 10427882891 -0.8794478444944605 0.8375777919775927
984.028 10427882931 -0.8774613824179882 0.8117649442900699
984.068 10427882971 -0.8768100319523702 0.7854836719731428
984.108 10427883011 -0.8777827856127386 0.7590290421641885
984.148 10427883051 -0.8806637618100506 0.7326599493622483
984.188 10427883091 -0.8857309038896482 0.7065981139462174
984.228 10427883131 -0.8932537663446339 0.6810292981676691
984.268 10427883171 -0.9034901564439781 0.6561059792450189
984.308 10427883211 -0.9166813559487349 0.6319505341379117
984.348 10427883251 -0.9330456793471199 0.6086582361459378
984.388 10427883291 -0.9527703324318394 0.5862998557655584
984.428 10427883331 -0.9760019198780291 0.5649240688335357
984.468 10427883371 -1.002836408247408 0.5445599842005939
984.5079999999999 10427883411 -1.033309721996361 0.525219946194428
984.548 10427883451 -1.067390292937269 0.5069025593869303
984.588 10427883491 -1.104974731622722 0.4895958043015421
984.6279999999999 10427883531 -1.145887376438751 0.4732801564497735
984.668 10427883571 -1.189883921642486 0.457931643407577
984.708 10427883611 -1.23665877871995 0.4435246668902952
984.7479999999999 10427883651 -1.285855407648369 0.4300342215964649
984.788 10427883691 -1.337078626503911 0.4174370147872298
984.828 10427883731 -1.389907866454523 0.4057110680051607
984.8679999999999 10427883771 -1.44391043560475 0.3948336924599644
984.908 10427883811 -1.498654023495918 0.3847781808339797
984.948 10427883851 -1.553717863085983 0.3755099820335974
984.9879999999999 10427883891 -1.608702134523415 0.3669833406358709
985.028 10427883931 -1.663235326726035 0.3591392765778175
985.068 10427883971 -1.716979367693223 0.351905375511134
985.108 10427884011 -1.769632422479776 0.3451973198915435
985.148 10427884051 -1.820929395831099 0.3389216401826926
985.188 10427884091 -1.870640403105037 0.3329789609161723
985.228 10427884131 -1.918567753976153 0.3272670657899803
985.268 10427884171 -1.964542221777905 0.3216833052687281
985.308 10427884211 -2.008419433777754 0.3161260991622152
985.348 10427884251 -2.050077068577049 0.3104954685536737
985.388 10427884291 -2.08941323257794 0.3046926411448281
985.428 10427884331 -2.126346014477237 0.2986188410273029
985.468 10427884371 -2.160813898206501 0.2921734745054482
985.5079999999999 10427884411 -2.192776526672296 0.2852521229497511
985.548 10427884451 -2.222215266905775 0.2777450223765998
985.588 10427884491 -2.249133092412323 0.2695369020948967
985.6279999999999 10427884531 -2.273553409060507 0.2605089895094309
985.668 10427884571 -2.295517561129192 0.2505435730284727
985.708 10427884611 -2.315080847208474 0.2395308246104659
985.7479999999999 10427884651 -2.332306951459803 0.22737683685582
985.788 10427884691 -2.347260764551292 0.2140113007991552
985.828 10427884731 -2.359999659488454 0.1993931664613392
985.8679999999999 10427884771 -2.370563444535109 0.1835130720017568
985.908 10427884811 -2.378963464428216 0.1663921743616254
985.948 10427884851 -2.385171634773567 0.1480779604637036
985.9879999999999 10427884891 -2.38911048902307 0.1286383161040787
986.028 10427884931 -2.390645482963175 0.1081553492438501
986.068 10427884971 -2.389580746993956 0.0867201733497214
986.108 10427885011 -2.385659174258369 0.06442921735278813
986.148 10427885051 -2.378567248250443 0.04138195105143849
986.188 10427885091 -2.367944485689772 0.017679535660573
986.228 10427885131 -2.353396937085257 -0.00657600941919492
986.268 10427885171 -2.334513907748581 -0.03128214387313433
986.308 10427885211 -2.310886902388084 -0.05633532999461253
986.348 10427885251 -2.282129691265613 -0.08162939738001905
986.388 10427885291 -2.247898325565068 -0.1070526504816933
986.428 10427885331 -2.207909936826104 -0.1324839113060791
986.468 10427885371 -2.161959282023561 -0.1577878715105136
986.5079999999999 10427885411 -2.109932213969764 -0.1828102536752696
986.548 10427885451 -2.051815480364148 -0.2073734746581391
986.588 10427885491 -1.987702425943544 -0.2312737641924496
986.6279999999999 10427885531 -1.917794320191405 -0.254280859510243
986.668 10427885571 -1.842397240310128 -0.2761412836104845
986.708 10427885611 -1.761914749757035 -0.2965857539542457
986.7479999999999 10427885651 -1.676836980741066 -0.3153405613938899
986.788 10427885691 -1.587727053787683 -0.332142003696994
986.828 10427885731 -1.495205965274899 -0.3467523378959204
986.8679999999999 10427885771 -1.399937112459591 -0.3589753490270661
986.908 10427885811 -1.302611507479743 -0.3686695843200559
986.948 10427885851 -1.203934472429732 -0.3757575954125546
986.9879999999999 10427885891 -1.104614237568107 -0.3802301312547441
987.028 10427885931 -1.005352450027364 -0.3821450079529822
987.068 10427885971 -0.9068362518046386 -0.3816211461276426
987.108 10427886011 -0.8097314216647432 -0.3788288106144842
987.148 10427886051 -0.7146761370417971 -0.3739773255671032
987.188 10427886091 -0.6222751073294937 -0.3673015359185677
987.228 10427886131 -0.5330939929479956 -0.3590481812238557
987.268 10427886171 -0.4476540523675275 -0.3494632333560792
987.308 10427886211 -0.3664268890569062 -0.3387811304944387
987.348 10427886251 -0.289829126349711 -0.3272166770564245
987.388 10427886291 -0.2182169235552381 -0.3149601423279937
987.428 10427886331 -0.1518804754911458 -0.3021757678094426
987.468 10427886371 -0.09103892838909608 -0.2890034925246055
987.5079999999999 10427886411 -0.03583636076642051 -0.2755632801207727
987.548 10427886451 0.01366049415656536 -0.2619610760706949
987.588 10427886491 0.05746227749506001 -0.2482952024238214
987.6279999999999 10427886531 0.09565455006793049 -0.2346619155626072
987.668 10427886571 0.1283928759253197 -0.2211589363184377
987.708 10427886611 0.1558956544164791 -0.2078861171965362
987.7479999999999 10427886651 0.1784350521681104 -0.1949431080269883
987.788 10427886691 0.1963265180759269 -0.1824247727401718
987.828 10427886731 0.2099174829988033 -0.1704158128087207
987.8679999999999 10427886771 0.2195759023362163 -0.1589861758241384
987.908 10427886811 0.2256792573124973 -0.1481882948840341
987.948 10427886851 0.2286045152273281 -0.1380563549784113
987.9879999999999 10427886891 0.2287194278399859 -0.1286071029330724
988.028 10427886931 0.2263754633565365 -0.1198414727844012
988.068 10427886971 0.2219026038542575 -0.1117464207604358
988.108 10427887011 0.2156061476939301 -0.1042966290605658
988.148 10427887051 0.20776550757626 -0.0974559824461554
988.188 10427887091 0.1986348040897994 -0.09117890850446032
988.228 10427887131 0.1884448653914802 -0.08541181233568378
988.268 10427887171 0.1774061050091843 -0.0800949010157786
988.308 10427887211 0.1657116977588756 -0.07516461552242525
988.348 10427887251 0.153540520506641 -0.07055664797239282
988.388 10427887291 0.1410594583533424 -0.0662092191943751
988.428 10427887331 0.1284248697494885 -0.06206610607294888
988.468 10427887371 0.1157832107299491 -0.05807896508718607
988.5079999999999 10427887411 0.1032709770094044 -0.0542087599536373
988.548 10427887451 0.0910141850877722 -0.05042639216157047
988.588 10427887491 0.07912758624220599 -0.04671277251181166
988.6279999999999 10427887531 0.06771374545857675 -0.04305849749890803
988.668 10427887571 0.05686207297018096 -0.03946310675339806
988.708 10427887611 0.0466478835189074 -0.03593379056583892
988.7479999999999 10427887651 0.03713156649530664 -0.0324835196294443
988.788 10427887691 0.02835796869072558 -0.02912883120769823
988.828 10427887731 0.02035612101550052 -0.02588773868419154
988.8679999999999 10427887771 0.01313947926731833 -0.02277826782625055
988.908 10427887811 0.006706871977291992 -0.01981793804818375
988.948 10427887851 0.001044306391336202 -0.01702420884811965
988.9879999999999 10427887891 -0.00387236266603785 -0.01441563210112557
989.028 10427887931 -0.008074127246220659 -0.01201325434039931
989.068 10427887971 -0.01159533050371151 -0.009841712145164548
989.108 10427888011 -0.01447051702554615 -0.007929480531808961
989.148 10427888051 -0.01673207063523249 -0.00630790173843801
989.188 10427888091 -0.01840885716798959 -0.005008931570260308
989.228 10427888131 -0.01952585783865997 -0.00406191520770141
989.268 10427888171 -0.02010463415093866 -0.003490015686403319
989.308 10427888211 -0.02016442401252715 -0.003307027604094709
989.348 10427888251 -0.01972368686754191 -0.003515132928548856
989.388 10427888291 -0.01880194190595502 -0.004103749242999678
989.428 10427888331 -0.01742174797277859 -0.005049203461051997
989.468 10427888371 -0.01561064527998526 -0.006314810779861965
989.5079999999999 10427888411 -0.01340282072400648 -0.007851162506194397
989.548 10427888451 -0.01084019600077403 -0.00959685542551917
989.588 10427888491 -0.007972619068249306 -0.01148018600984173
989.6279999999999 10427888531 -0.004856913091719517 -0.01342223163710442
989.668 10427888571 -0.001554711774071204 -0.01534127856873849
989.708 10427888611 0.00187076702402589 -0.01715801839258588
989.7479999999999 10427888651 0.005358676483016307 -0.01880064460031676
989.788 10427888691 0.008854819615334096 -0.02020908583966508
989.828 10427888731 0.01231587756117994 -0.02133802154441188
989.8679999999999 10427888771 0.01571327593773938 -0.02215879056062697
989.908 10427888811 0.01903639186226657 -0.02266056298368084
989.948 10427888851 0.0222947554377961 -0.02285108562292863
989.9879999999999 10427888891 0.02551886309252753 -0.02275704663684787
990.028 10427888931 0.0287592991433091 -0.02242388609318653
990.068 10427888971 0.03208409037012125 -0.0219148824005028
990.108 10427889011 0.03557452328352336 -0.02130952673610507
990.148 10427889051 0.03931990396624115 -0.02070135507229719
990.188 10427889091 0.04341183179723532 -0.0201953729291024
990.228 10427889131 0.04793847363350452 -0.01990500143491211
990.268 10427889171 0.05297913686715019 -0.01994828412201765
990.308 10427889211 0.0585992604571983 -0.02044312103045441
990.348 10427889251 0.06484585323388574 -0.02150157787343664
990.388 10427889291 0.07174342082362729 -0.02322369703971428
990.428 10427889331 0.07929050300192093 -0.02569150207331605
990.468 10427889371 0.08745705351024835 -0.0289639336251012
990.5079999999999 10427889411 0.09618299570535996 -0.03307331139905637
990.548 10427889451 0.1053783234739346 -0.03802365783264876
990.588 10427889491 0.1149250291633392 -0.04379090775206947
990.6279999999999 10427889531 0.1246809190086228 -0.05032472277103429
990.668 10427889571 0.134485080088685 -0.05755138613571192
990.708 10427889611 0.1441644769584161 -0.06537710869034222
990.7479999999999 10427889651 0.1535409491722976 -0.07369106034371893
990.788 10427889691 0.1624378041587392 -0.08236761004083398
990.828 10427889731 0.1706852974021711 -0.09126765390822592
990.8679999999999 10427889771 0.1781245689846633 -0.100239461953026
990.908 10427889811 0.1846099840142782 -0.109119941956266
990.948 10427889851 0.1900101638536123 -0.117737332810732
990.9879999999999 10427889891 0.1942081850446708 -0.1259160176304744
991.028 10427889931 0.1971014473685811 -0.1334835775286146
991.068 10427889971 0.1986016190965407 -0.140279662663045
991.108 10427890011 0.1986349030948195 -0.1461658745663336
991.148 10427890051 0.1971426652169412 -0.1510356220985732
991.188 10427890091 0.1940822712137234 -0.154822804116894
991.228 10427890131 0.1894278516116925 -0.1575082041884905
991.268 10427890171 0.1831707080318895 -0.1591226850445043
991.308 10427890211 0.175319205172102 -0.1597466436451317
991.348 10427890251 0.1658982240371078 -0.1595057097587103
991.388 10427890291 0.1549484946068511 -0.1585632831733626
991.428 10427890331 0.14252626334631 -0.1571110569034049
991.468 10427890371 0.1287036966898667 -0.1553589318642525
991.5079999999999 10427890411 0.1135701787429367 -0.1535255219034027
991.548 10427890451 0.09723432906341317 -0.1518298415302898
991.588 10427890491 0.07982628023094252 -0.1504840621211474
991.6279999999999 10427890531 0.06149960733882001 -0.1496867585271036
991.668 10427890571 0.04243230207585907 -0.1496160190865062
991.708 10427890611 0.0228262829000651 -0.1504220940900838
991.7479999999999 10427890651 0.002905083874060177 -0.1522197168834591
991.788 10427890691 -0.01709043144807592 -0.1550806751661165
991.828 10427890731 -0.03690820685692204 -0.1590275392586043
991.8679999999999 10427890771 -0.05629253065029002 -0.1640296052433425
991.908 10427890811 -0.07499224786015661 -0.1700020310964761
991.948 10427890851 -0.09276881600455986 -0.1768088203839639
991.9879999999999 10427890891 -0.1094034813375818 -0.1842697841701286
992.028 10427890931 -0.1247031177885247 -0.1921709631213932
992.068 10427890971 -0.138504578042819 -0.2002773177555177
992.108 10427891011 -0.1506776547827309 -0.2083459522626566
992.148 10427891051 -0.1611268829302109 -0.2161379462661147
992.188 10427891091 -0.1697924099594264 -0.2234272132765137
992.228 10427891131 -0.1766500346353891 -0.2300056738678705
992.268 10427891171 -0.1817103262858603 -0.2356851469630545
992.308 10427891211 -0.1850165901008647 -0.2402972816408508
992.348 10427891251 -0.1866414378867561 -0.2436931997679596
992.388 10427891291 -0.1866818936114024 -0.2457441925595736
992.428 10427891331 -0.1852532548361769 -0.2463440217194917
992.468 10427891371 -0.1824822272217743 -0.2454125110684959
992.5079999999999 10427891411 -0.1785000286741936 -0.2428995415673788
992.548 10427891451 -0.1734361575685114 -0.2387884414508958
992.588 10427891491 -0.1674133576598478 -0.2330980002837296
992.6279999999999 10427891531 -0.160544082341047 -0.2258826897243546
992.668 10427891571 -0.1529285633975356 -0.217230955967214
992.708 10427891611 -0.1446544677504837 -0.2072616544580888
992.7479999999999 10427891651 -0.1357980511620657 -0.1961189246507105
992.788 10427891691 -0.1264266370496448 -0.1839660542487043
992.828 10427891731 -0.1166021370094019 -0.1709790177196865
992.8679999999999 10427891771 -0.1063852009852608 -0.157340284370183
992.908 10427891811 -0.09583947115001745 -0.1432332586102491
992.948 10427891851 -0.08503535774897596 -0.1288375197482928
992.9879999999999 10427891891 -0.07405280783136156 -0.1143249321481736
993.028 10427891931 -0.06298272021223127 -0.09985660161939085
993.068 10427891971 -0.05192691977579044 -0.08558048343364569
993.108 10427892011 -0.04099682801355181 -0.07162928159318198
993.148 10427892051 -0.03031105763541133 -0.0581182780304055
993.188 10427892091 -0.01999211178008481 -0.04514295987169126
993.228 10427892131 -0.01016227843473867 -0.03277667561025079
993.268 10427892171 -0.0009388112477076897 -0.02106886243862727
993.308 10427892211 0.007571350483394415 -0.0100444960830664
993.348 10427892251 0.0152768085449682 0.0002947159372003285
993.388 10427892291 0.02210616976567711 0.009967175995038135
993.428 10427892331 0.02801106072792726 0.01900641563700553
993.468 10427892371 0.03296727793831598 0.02745477919657904
993.5079999999999 10427892411 0.03697406978561849 0.03535650586950046
993.548 10427892451 0.04005192334497217 0.04275102821513817
993.588 10427892491 0.0422394203053826 0.04966721764908687
993.6279999999999 10427892531 0.04358967884051103 0.05611912620433807
993.668 10427892571 0.04416668599205521 0.0621035977519445
993.708 10427892611 0.04404161172137951 0.06759996590159459
993.7479999999999 10427892651 0.04328913204644491 0.07257183165517377
993.788 10427892691 0.04198390742393628 0.07697055562340649
993.828 10427892731 0.04019755695611169 0.08073970050659544
993.8679999999999 10427892771 0.03799657512744713 0.08381944090690248
993.908 10427892811 0.03544155157218829 0.08615009143575342
993.948 10427892851 0.03258779489534699 0.08767437020851286
993.9879999999999 10427892891 0.02948714383172558 0.08833860163612321
994.028 10427892931 0.02619049888634797 0.08809349063771205
994.068 10427892971 0.02275049244797401 0.08689517671045742
994.108 10427893011 0.01922373835984847 0.08470697875033166
994.148 10427893051 0.01567223464981006 0.08150171217438955
994.188 10427893091 0.01216369542482839 0.07726395284634724
994.228 10427893131 0.008770808531553369 0.07199141898953722
994.268 10427893171 0.00556960084465493 0.06569490470788358
994.308 10427893211 0.002637207308284849 0.0583968250686731
994.348 10427893251 4.937361725319207e-005 0.05012907637137356
994.388 10427893291 -0.002122017608512513 0.04093121710031997
994.428 10427893331 -0.003811208097412122 0.03084982377611297
994.468 10427893371 -0.004960563568497048 0.01993945150411575
994.5079999999999 10427893411 -0.005522405138370952 0.008265200757011315
994.548 10427893451 -0.005460864037757801 -0.004093406330752548
994.588 10427893491 -0.004753963841538727 -0.01703774937742872
994.6279999999999 10427893531 -0.003396037877425125 -0.0304453722523289
994.668 10427893571 -0.001400388142920803 -0.04416618844439562
994.708 10427893611 0.001198163553035918 -0.0580207877080475
994.7479999999999 10427893651 0.00434139327438688 -0.07180181765627812
994.788 10427893691 0.007947090569256819 -0.08527880222128102
994.828 10427893731 0.01191029103676583 -0.09820595024769868
994.8679999999999 10427893771 0.01610660480192652 -0.1103319255015441
994.908 10427893811 0.02039762537162887 -0.1214104621032964
994.948 10427893851 0.02463809669278468 -0.131211012351455
994.9879999999999 10427893891 0.02868420975767504 -0.1395289494451099
995.028 10427893931 0.03240213168460094 -0.1461949201667033
995.068 10427893971 0.03567573012221749 -0.1510827394501788
995.108 10427894011 0.03841253488202916 -0.1541149728318159
995.148 10427894051 0.04054728836060533 -0.1552653372903297
995.188 10427894091 0.04204288641420612 -0.1545574045893456
995.228 10427894131 0.04288895713134047 -0.1520597496257808
995.268 10427894171 0.04309863598506366 -0.1478783986788364
995.308 10427894211 0.0427042130394322 -0.1421478812112112
995.348 10427894251 0.04175228631737358 -0.135022194514876
995.388 10427894291 0.04029894892991404 -0.1266666443292238
995.428 10427894331 0.03840544113001669 -0.1172511007754835
995.468 10427894371 0.03613461437186364 -0.1069449219851363
995.5079999999999 10427894411 0.03354843214317727 -0.09591364121384637
995.548 10427894451 0.03070654252377057 -0.08431733909984195
995.588 10427894491 0.02766574670166347 -0.07231036758501544
995.6279999999999 10427894531 0.02448005350729032 -0.06004188845306829
995.668 10427894571 0.02120101596836944 -0.04765671983457732
995.708 10427894611 0.01787816380297803 -0.03529624399882133
995.7479999999999 10427894651 0.01455948172542935 -0.0230993940666844
995.788 10427894691 0.01129195304556587 -0.01120376929878397
995.828 10427894731 0.008122168405321113 0.0002533096797263345
995.8679999999999 10427894771 0.005096926336244289 0.01113432898061994
995.908 10427894811 0.002263684212190576 0.02130240595083702
995.948 10427894851 -0.0003292954448283302 0.03062400724650077
995.9879999999999 10427894891 -0.002633191962722656 0.03897371359976963
996.028 10427894931 -0.004599218361079104 0.04624052000133756
996.068 10427894971 -0.006179359183429971 0.05233449530145256
996.108 10427895011 -0.007326988203095932 0.05719225168627918
996.148 10427895051 -0.007997191422182538 0.06077982803176467
996.188 10427895091 -0.008146849000035922 0.06309227348120332
