-12 0.06242752110308605 0.04179352418425977 0.04177932160040689 0.04349610387906919
-11.96 0.06458936120470336 0.03955354387283322 0.04177951794368594 0.04349630829042234
-11.92 0.06690725788579978 0.03690111991111274 0.04178076611623444 0.04349760775247075
-11.88 0.06949171448284643 0.03385254208058535 0.041781753183532 0.04349863538001628
-11.84 0.07159310310621937 0.03122015882411142 0.04176862887515227 0.04348497177183027
-11.8 0.07426091635439502 0.02817943255858899 0.04177049944990818 0.04348691921163493
-11.76 0.07640411241397876 0.02448169928009986 0.04177039923493862 0.04348681487866447
-11.72 0.07928570781208309 0.02114056529939965 0.04177240636090481 0.0434889044807973
-11.68 0.08212738068164179 0.01778288523498335 0.04177461713818328 0.04349120610261581
-11.64 0.08468741906894899 0.01460537987068831 0.04177633765398648 0.04349299731729413
-11.6 0.08737321209299727 0.01139419216426723 0.04177841734655714 0.04349516246791469
-11.56 0.09004510332538554 0.008196261473940428 0.04178075037195953 0.04349759136123722
-11.52 0.09215236019294305 0.005160316747997265 0.04178126391678093 0.0434981260084752
-11.48 0.09436927011896179 0.002130753541033955 0.04178196029907003 0.04349885100627857
-11.44 0.09620060276855344 -0.0002806393853111953 0.04178003871599521 0.04349685046213775
-11.4 0.0982648053290167 -0.002851619033996496 0.04178203393263165 0.04349892766556652
-11.36 0.09920893636771115 -0.00544366550485514 0.04178076378845527 0.04349760532903924
-11.32 0.1005503607327779 -0.007425926412925845 0.04178160489365399 0.04349848099665889
-11.28 0.1018650375691138 -0.009194654819924557 0.04178343240512622 0.04350038360363746
-11.24 0.1026785888768221 -0.01041101366983059 0.04177995555232591 0.04349676388113404
-11.2 0.103904731977947 -0.0115075365825945 0.04178339230689653 0.04350034185770437
-11.16 0.104786145691199 -0.01244639924372786 0.04178528102724578 0.04350230818873518
-11.12 0.105240849514526 -0.01290024299598312 0.04178702881723575 0.04350412779834229
-11.08 0.1056336976315084 -0.01333232397914341 0.04178758017304859 0.04350470181028866
-11.04 0.1056865459373189 -0.01320425542159273 0.04178944994244778 0.04350664841164315
-11 0.1059424766305351 -0.01282340212450183 0.04179290726067533 0.04351024779686551
-10.96 0.1058180318048031 -0.01239095502180466 0.04179450010209686 0.04351190609080806
-10.92 0.1055063563710305 -0.01172148633850404 0.04179610508364809 0.04351357702373856
-10.88 0.1050799848820554 -0.01093778143917164 0.04179848561435167 0.04351605537443463
-10.84 0.1046212426429393 -0.01003341767168544 0.04180063491173708 0.04351829299004834
-10.8 0.1037031814298716 -0.008700478946109392 0.04179907008471078 0.04351666386165943
-10.76 0.1029926260948567 -0.00780163771353841 0.04180112532086039 0.04351880355090365
-10.72 0.1022641685736271 -0.007085541378676611 0.04180252227041216 0.04352025790345152
-10.68 0.1012954047129423 -0.006546034325921963 0.04180420693277797 0.04352201179141469
-10.64 0.1000424889347343 -0.005899205501554815 0.04180126066839939 0.04351894446009965
-10.6 0.09837497519386312 -0.006021922328403718 0.04180015807126116 0.04351779655539886
-10.56 0.09737983914122418 -0.00609188908712317 0.04180105522913911 0.04351873057899618
-10.52 0.09665943716650993 -0.006699194103838273 0.04180244118940238 0.04352017349068729
-10.48 0.09578148324071167 -0.007391025093676291 0.04180462889491268 0.04352245109268003
-10.44 0.0951264210492115 -0.00868271531655377 0.04180637400592871 0.04352426791322968
-10.4 0.09445766083268364 -0.01028507054386451 0.04180844462466939 0.0435264236171614
-10.36 0.09250215878628167 -0.01216764228390204 0.0417924199776439 0.04350974049055842
-10.32 0.09184492920933164 -0.01438194166901648 0.04179463498208438 0.0435120465132401
-10.28 0.09128448811378165 -0.01697637072400703 0.04179607536053787 0.04351354607925598
-10.24 0.09043566890151412 -0.01969254074841826 0.04179742881363449 0.04351495514800652
-10.2 0.08997369901684696 -0.02252802175727598 0.04180045289022354 0.04351810348896603
-10.16 0.0894975317804711 -0.02554009608586452 0.04180366369111187 0.04352144622703895
-10.12 0.08914552146014454 -0.02868647253097571 0.04180644163783201 0.04352433832424112
-10.08 0.08838128148424933 -0.03181365488537424 0.04180789241145034 0.04352584871257657
-10.04 0.08779570890256358 -0.03524949020527401 0.04180932201306986 0.04352733705892032
-10 0.08707250249769341 -0.03825773461135903 0.04181123236396767 0.04352932590933515
-9.960000000000001 0.08628734461462347 -0.04123208861612207 0.04181258828228837 0.04353073754460997
-9.92 0.08491600489576043 -0.04270082385955338 0.04160390109574722 0.04331347505215398
-9.879999999999999 0.08452679777225589 -0.04543346643024974 0.04160715241554371 0.04331685997412483
-9.84 0.08388826663949865 -0.04784840958342599 0.04160981077211632 0.04331962756702008
-9.800000000000001 0.08292028949277037 -0.0499260273663356 0.04160674177172326 0.04331643245626222
-9.76 0.08224091997775913 -0.05215221432697818 0.04160811896206648 0.04331786623766257
-9.720000000000001 0.08167756002336357 -0.05404205790028938 0.04161091856566502 0.04332078088166055
-9.68 0.08031921710469717 -0.05611720086157774 0.04161079887059645 0.0433206562681212
-9.640000000000001 0.0781928617949674 -0.05744126549908876 0.0415949049680039 0.04330410925845882
-9.6 0.07704426601503457 -0.05841715012937222 0.04159597001940227 0.04330521807460246
-9.560000000000001 0.07548320273454755 -0.05960691756260812 0.04159547519796022 0.04330470292011884
-9.52 0.07386533829717649 -0.06043431449315471 0.041595216217344 0.04330443329755546
-9.48 0.07242516103809425 -0.06066664288380612 0.04159699244713538 0.04330628251560304
-9.44 0.07053661983532658 -0.06102844225916317 0.04159672911432617 0.04330600836200777
-9.4 0.06818658985307828 -0.06109376422120914 0.04159595607780717 0.04330520356012386
-9.359999999999999 0.06560167483678807 -0.06071523743990492 0.04158928362863502 0.04329825692884307
-9.32 0.06383350967962387 -0.05980634473441399 0.04159149044667478 0.04330055442873112
-9.279999999999999 0.06222956398845589 -0.05896405466234232 0.04159373109244512 0.04330288714638783
-9.24 0.06004960883985196 -0.05771010666627214 0.04159138247078124 0.04330044201592732
-9.199999999999999 0.05747659493508159 -0.05685616160708986 0.04159084867859369 0.04329988628932501
-9.16 0.05487319009886587 -0.05589960477547508 0.04159046003668087 0.04329948167746527
-9.120000000000001 0.05284726312308137 -0.05441675513592098 0.04159181761993797 0.0433008950460915
-9.08 0.05102899930268642 -0.05301513499622934 0.04159339048022039 0.04330253253783648
-9.039999999999999 0.04945376520562198 -0.05137051822575813 0.04159701828324835 0.04330630941336515
-9 0.04785724566443592 -0.04989986132843106 0.04159837029532058 0.04330771698187719
-8.960000000000001 0.04612956549937712 -0.04814157767210978 0.04160069630142632 0.04331013856746842
-8.92 0.04386924863683293 -0.04681160369655166 0.04160038587277545 0.04330981538278451
-8.879999999999999 0.04131256525333728 -0.04528058045397695 0.04159441530101694 0.04330359947023548
-8.84 0.03892310485546401 -0.04392512794180088 0.04159321599138595 0.04330235087896367
-8.800000000000001 0.03704275447253897 -0.04204206852515554 0.0415899761458854 0.04329897790278679
-8.76 0.0357517203956924 -0.04032360732189269 0.04159271638031101 0.04330183073803313
-8.720000000000001 0.03454591050452359 -0.03874144692069494 0.04159511179687989 0.04330432458627963
-8.68 0.03333605804503868 -0.03722057959161002 0.04159741974776262 0.04330672737472851
-8.640000000000001 0.03227818993255988 -0.0356854659332882 0.04160022265488767 0.04330964545800043
-8.6 0.03003274336685861 -0.03527154047893309 0.04160139969811566 0.04331087086790547
-8.560000000000001 0.02747184882546979 -0.03465278615120378 0.04160180221150561 0.04331128992124457
-8.52 0.02530733927668901 -0.03361863011276181 0.04159425265262517 0.04330343013834898
-8.48 0.0240999894095239 -0.03235527984676766 0.04159498518663515 0.04330419277340795
-8.44 0.02248174864657763 -0.03154909596698247 0.04159426663659199 0.0433034446969404
-8.4 0.02108608813875972 -0.03097928471242353 0.04159404712769833 0.04330321616805875
-8.359999999999999 0.01894360045528721 -0.0308561142106964 0.04159573044076707 0.04330496865127999
-8.32 0.01827568232552847 -0.02994757593438822 0.04159833059486993 0.04330767565006856
-8.279999999999999 0.01517261938126853 -0.03013213188553399 0.04160041120766672 0.04330984175872889
-8.24 0.01349353239411797 -0.02962611773613964 0.04159991999184558 0.04330933035802718
-8.199999999999999 0.01283510699720308 -0.02866495887115781 0.04160216740030869 0.04331167011626703
-8.16 0.01213839980471131 -0.02775896275767492 0.04160397388681353 0.04331355083432708
-8.120000000000001 0.0111340900797762 -0.0266634959020972 0.04160497014983527 0.04331458803546451
-8.08 0.008867167903949641 -0.02457597924750149 0.04180242700573179 0.04352015872418593
-8.039999999999999 0.008140099985666557 -0.02331077228912017 0.04180433602358636 0.04352214618678055
-8 0.007369423537568713 -0.02200227051560095 0.04180510927689941 0.04352295121436694
-7.96 0.005868513707694187 -0.02095273961762791 0.04180476681519304 0.04352259468033565
-7.92 0.003303133979459704 -0.0200156419128829 0.04180680625980933 0.043524717929146
-7.88 0.001843054583261269 -0.01791262468236438 0.04180687559775334 0.04352479011630223
-7.84 0.0004324111658964431 -0.01560176904540439 0.04180773838440518 0.04352568835630222
-7.8 -0.001028399265652492 -0.01316134033479088 0.04180937106433814 0.04352738812578735
-7.76 -0.00241528358151434 -0.01063351145701608 0.04181070092540535 0.04352877263307248
-7.72 -0.004176564076163515 -0.007824170906228448 0.04181138493642595 0.04352948475125121
-7.68 -0.006493693448636915 -0.005326958305851581 0.04181138213422256 0.04352948183390059
-7.64 -0.008737351110541743 -0.00252865319203553 0.04181131903108885 0.04352941613775346
-7.6 -0.01036506486473756 0.00083547348977947 0.04181263636620701 0.04353078760437733
-7.56 -0.01267611479178496 0.003934557414822008 0.04181255978964907 0.04353070788116041
-7.52 -0.01443405711705346 0.007654812625781747 0.04181419638500122 0.04353241172695584
-7.48 -0.01647083668013237 0.01149661789039282 0.04181402205944819 0.04353223023807396
-7.44 -0.01800549895443851 0.01539470445053789 0.04181600537582671 0.04353429505224327
-7.4 -0.01987695323655913 0.01960277659430895 0.04181423266647926 0.04353244949930057
-7.36 -0.02175162790135445 0.02367530723818923 0.04181401383195883 0.04353222167250328
-7.32 -0.02340952865518027 0.02752939847163766 0.04181529004407163 0.04353355032630864
-7.28 -0.02489771285192831 0.03130811372270355 0.04181707716702531 0.04353541088513681
-7.24 -0.02662411671145734 0.03532185423466568 0.0418169122545991 0.04353523919618288
-7.2 -0.02856249696700517 0.03864126193204494 0.04181649279029781 0.04353480249539111
-7.16 -0.02981628200760146 0.04226821253081576 0.04181853939067391 0.04353693319400343
-7.12 -0.03130816012386312 0.045743435295371 0.04182018261129483 0.04353864393731102
-7.08 -0.03296812618276485 0.04926300165110419 0.04182091113262443 0.04353940239480187
-7.04 -0.03511850123200305 0.05218076672029725 0.04182087991969708 0.04353936989928308
-7 -0.03698947225245719 0.05531644383192362 0.04182115927772754 0.04353966073660276
-6.96 -0.03887110567986941 0.05839854177676839 0.04182122056446187 0.04353972454171162
-6.92 -0.04080824757912572 0.06130110920056926 0.04182138795384159 0.04353989880940123
-6.88 -0.04261831073000923 0.06418843650996983 0.04182251218667695 0.04354106923884617
-6.84 -0.04418236263063975 0.0666489960243373 0.04182536825881189 0.04354404267176727
-6.8 -0.0458542756437588 0.06892200870740374 0.04182759813028671 0.04354636417239462
-6.76 -0.0491918418004329 0.07013440861221569 0.04182974820434992 0.04354860259660111
-6.72 -0.05390337832868396 0.07031752735612354 0.04185191145337873 0.04357167657064202
-6.68 -0.05614041156866011 0.07211443543697949 0.04185152504466719 0.04357127428374953
-6.64 -0.05847528822526191 0.07398312029373291 0.0418456600502976 0.04356516828694112
-6.6 -0.06082043152503893 0.07528476252384428 0.04184457453760657 0.04356403816871605
-6.56 -0.06265214935056056 0.0763431838463718 0.04184670144710436 0.04356625247648635
-6.52 -0.0650440078858065 0.0766296123408802 0.04184656046009005 0.04356610569607956
-6.48 -0.06695871900271568 0.0771954178641872 0.04184760319028798 0.04356719127380725
-6.44 -0.06946545154674158 0.07672345001506178 0.04184801916441858 0.04356762434101135
-6.4 -0.0717679348616595 0.07680416720492367 0.04183965794782736 0.04355891954803062
-6.36 -0.07334889083626588 0.07624943871395443 0.04184127114936745 0.04356059903872309
-6.32 -0.07548118272201131 0.07495680658780037 0.04184128401112586 0.04356061242899269
-6.28 -0.07746539604804513 0.07340780106877305 0.04184143947377824 0.04356077427986577
-6.24 -0.07939131076519296 0.0715424639387206 0.04184151418826945 0.04356085206450052
-6.2 -0.080429547323265 0.0698482238680203 0.0418429816792812 0.04356237985717507
-6.16 -0.0815873565481768 0.06799699291090276 0.04184330320303795 0.04356271459288134
-6.12 -0.08249235275130891 0.06577847167559778 0.04184431984303175 0.0435637730083147
-6.08 -0.0830761337372737 0.06339980916028067 0.0418459344333803 0.04356545394488411
-6.04 -0.08404747283671385 0.06035587274546989 0.04184593767611693 0.04356545732087021
-6 -0.08527987941502041 0.05735954092921484 0.0418405120798561 0.04355980877777456
-5.96 -0.08609038943649978 0.05387814540766148 0.0418408596582382 0.04356017063873436
-5.92 -0.08711547548745832 0.04998329964970712 0.04184339179056962 0.04356280682062301
-5.88 -0.0876516277845325 0.04655673218067742 0.04184178106045641 0.04356112990291249
-5.84 -0.0872899282148621 0.04355401052700691 0.04184173988625189 0.04356108703679096
-5.8 -0.08673834162365784 0.04049971646313502 0.0418415685414768 0.04356090865117216
-5.76 -0.08722578926554121 0.03658426830388115 0.04184390475978309 0.04356334086860036
-5.72 -0.08656294696698791 0.03312066433228591 0.04184358598258252 0.04356300899231086
-5.68 -0.08537360196871885 0.0302045091457708 0.04184427154367797 0.04356372272425962
-5.64 -0.08438606733936936 0.02687468371891776 0.04184401330696133 0.0435634538761639
-5.6 -0.08303883702932331 0.02422437394202444 0.04184262317290179 0.04356200661916826
-5.56 -0.08231686893157623 0.02148314461859326 0.04183525159274149 0.0435543321284364
-5.52 -0.08122624143411676 0.01878641925053793 0.04183304270364399 0.04355203247238739
-5.48 -0.07925276208777608 0.01682946474454471 0.04183224403603397 0.043551200986188
-5.44 -0.07730070036350802 0.01486945512982187 0.04183086116481274 0.04354976129047285
-5.4 -0.07512308767891433 0.01305705739131934 0.04183054747072353 0.04354943470616828
-5.36 -0.072705410098285 0.01146743076767974 0.04183065520379641 0.0435495468661735
-5.32 -0.0698983409423334 0.009888893868447216 0.04183212643607222 0.04355107855384692
-5.28 -0.06754474291713164 0.009678122356253684 0.0416175366007592 0.04332767086289781
-5.24 -0.06456262175949454 0.008216293800258102 0.04161851776735108 0.04332869234726778
-5.2 -0.06256126999252701 0.006635927677233713 0.04161061290580544 0.04332046266172555
-5.16 -0.05974463256217227 0.005513563012211115 0.04160227676271656 0.04331178397255935
-5.12 -0.05741237707179792 0.003247009841635419 0.04160452892668585 0.0433141286817171
-5.08 -0.0538813735054922 0.001789508588669965 0.04160518968752242 0.0433148165943228
-5.04 -0.05050566444098847 0.0005044467473615612 0.04160358615144252 0.04331314716626047
-5 -0.04770010804246944 -0.001436763775955015 0.0416026714429186 0.04331219487083173
-4.96 -0.04413702314012537 -0.00290584976102069 0.04160113722617675 0.04331059761055512
-4.92 -0.04086728251070117 -0.005174621065083397 0.04160172856654032 0.04331121325008435
-4.88 -0.03809558122704597 -0.007789885743055183 0.04160491485280687 0.04331453046618862
-4.84 -0.03492294824572302 -0.009993504635389179 0.04160338087412043 0.04331293345374949
-4.8 -0.0310137204092554 -0.0119899976355226 0.04160296320890889 0.0433124986259751
-4.76 -0.02740383627956972 -0.01465091959027715 0.04160310061521417 0.04331264167853553
-4.72 -0.02416677962780219 -0.01735794221662319 0.04160097320895569 0.04331042685359181
-4.68 -0.01993323320956137 -0.0199459014209333 0.04160169790254554 0.04331118132605467
-4.64 -0.01544507163779406 -0.02276625313748541 0.04160202645361417 0.04331152337783683
-4.6 -0.01112977244893469 -0.02571103111224534 0.04160246855882305 0.043311983649889
-4.56 -0.006540376550767496 -0.02883787370698942 0.04160301880589906 0.04331255650753867
-4.52 -0.002046909295926704 -0.03183402773269195 0.04160233872161093 0.04331184847744844
-4.48 0.001724489437996038 -0.03544674104377877 0.04159907866779291 0.04330845446256049
-4.44 0.006249893911257271 -0.03913910400872805 0.04159942257005369 0.04330881249634098
-4.4 0.01018380119045438 -0.04324371510772743 0.04160003816479913 0.04330945338690524
-4.36 0.0145838836452679 -0.04666225276390414 0.041594774155256 0.04330397307039609
-4.32 0.01855642365533112 -0.05066879913685239 0.04159398127376116 0.04330314760807304
-4.28 0.02255651368806817 -0.05382507883769347 0.041574718778268 0.04328309358438751
-4.24 0.02578800976271494 -0.05834495986682323 0.04158003946652291 0.04328863290863162
-4.2 0.03020914013924387 -0.06157476722563609 0.04157930994539686 0.043287873410261
-4.16 0.0344436790429062 -0.06474753950983676 0.04157860602906802 0.0432871405688316
-4.12 0.03792692294821294 -0.06804876523076187 0.04157737456850503 0.04328585850549215
-4.08 0.04148841818580742 -0.07113045815231008 0.04157778243141241 0.0432862831281693
-4.04 0.0446469322038788 -0.07379607896952517 0.04157722530009332 0.04328570310339147
-4 0.0485527557636786 -0.07577154085090404 0.04157777498927737 0.04328627538022448
-3.960000000000001 0.05156239507681602 -0.07766503380483859 0.04157829737394478 0.04328681923055253
-3.92 0.05428949689522145 -0.07886871100662787 0.04157670625529105 0.0432851627301692
-3.880000000000001 0.0559826420220511 -0.08013239667299046 0.04158056118720627 0.0432891760676914
-3.84 0.05834837868337028 -0.08048101532983429 0.04158118705977218 0.04328982765840899
-3.800000000000001 0.06109113312047843 -0.07988453189304104 0.04158153166002469 0.04329018641886286
-3.76 0.06304870117733384 -0.07919433977814473 0.04158212454969616 0.04329080367136366
-3.720000000000001 0.0644167543158556 -0.07772764482246751 0.04157869056378595 0.04328722857722263
-3.68 0.06501570216967553 -0.07538846732593331 0.04154480705872486 0.043251952742205
-3.640000000000001 0.06630157595977453 -0.0731810979810109 0.04154550517627604 0.04325267954657527
-3.6 0.06811117583376965 -0.07000099212113749 0.04154619387906897 0.0432533965493191
-3.560000000000001 0.06919016525060689 -0.0668241446694709 0.04154624981411528 0.04325345478283013
-3.52 0.07031938016288947 -0.0627094559512927 0.04154470750942391 0.04325184910225659
-3.48 0.07083250248985312 -0.05888141100253105 0.04154542135784793 0.04325259228390761
-3.44 0.07161100705840492 -0.0543024466627253 0.04154546698060275 0.04325263978137781
-3.4 0.07229305988159648 -0.04954456483495272 0.04154579749649039 0.04325298387871668
-3.359999999999999 0.07235224273306214 -0.04430397812930412 0.04153849081723605 0.04324537695577768
-3.32 0.072524925787242 -0.03899776044040727 0.04153635917693628 0.04324315772280885
-3.279999999999999 0.07280805426184193 -0.03386361246559334 0.04153732623521897 0.04324416451913558
-3.24 0.07267819586582169 -0.02892491204547702 0.04153752314784709 0.04324436952323329
-3.199999999999999 0.07107258583543356 -0.02492887541568338 0.04154381577819893 0.0432509207283025
-3.16 0.06913176780370188 -0.0210645196816993 0.04155083919626969 0.04325823275038159
-3.119999999999999 0.06730760680591603 -0.01628881157653378 0.04153297279343579 0.04323963218714026
-3.08 0.06446309538266842 -0.01312952766567293 0.04154644597337887 0.04325365900260629
-3.039999999999999 0.06224049888969779 -0.009333384869213394 0.04154539075995724 0.04325256042869836
-3 0.06012613701879967 -0.006012364331295587 0.04154634552089923 0.04325355442236608
-2.960000000000001 0.05770205928855417 -0.003013719459691435 0.04154778913428786 0.04325505735624599
-2.92 0.05491970513249541 -0.0002049622715384908 0.0415467189231133 0.04325394316830233
-2.880000000000001 0.05283265204891857 0.002515790739581633 0.04154673256030911 0.04325395736587336
-2.84 0.05012123007707337 0.004372291757347476 0.04154774411892479 0.04325501049112628
-2.800000000000001 0.04662993849196031 0.005353795296618651 0.04155443387918448 0.04326197514483618
-2.76 0.04331593564311241 0.006613151707588941 0.04155373549627084 0.04326124806419927
-2.720000000000001 0.04067964163415769 0.007769294384973375 0.0415536954225344 0.04326120634376589
-2.68 0.03825817046668999 0.00880077083100326 0.04155420863449199 0.04326174064446214
-2.640000000000001 0.03497633724304387 0.008917948126794448 0.04155531961893189 0.04326289728111288
-2.6 0.03155469421593268 0.008707635189358036 0.041556988611623 0.04326463485550817
-2.560000000000001 0.02865942628167058 0.008940080372100511 0.04155486064541691 0.04326241944760766
-2.52 0.02523183852413926 0.008350467703651276 0.04155588603722864 0.04326348697448582
-2.48 0.02264270032843043 0.008083698414643639 0.04155651540431414 0.04326414220331867
-2.44 0.01791904716309913 0.006148962786238647 0.04157448887554308 0.04328285423457467
-2.4 0.01445724889616213 0.005198294060793507 0.04157538972712283 0.04328379210365419
-2.359999999999999 0.0116582965547156 0.004554331811922531 0.04157573608601611 0.04328415269501432
-2.32 0.008705875995923186 0.004055959841791591 0.04157360301706048 0.04328193197468377
-2.279999999999999 0.005223357617293613 0.003136888567721284 0.04157194659224472 0.04328020748459886
-2.24 0.002065066723922949 0.002444989740104316 0.04156900017192744 0.04327713999093734
-2.199999999999999 -0.002280481648807499 0.0009866127220608124 0.0415729946519508 0.0432812986108331
-2.16 -0.00615344954143785 0.0001270229701646991 0.04156663489166305 0.04327467751734652
-2.119999999999999 -0.009853843575206005 -0.0005517474374824721 0.04156009087776272 0.04326786459895791
-2.08 -0.01340517841581127 -0.001339626455702307 0.04155924553978706 0.04326698452462943
-2.039999999999999 -0.01609627898594186 -0.001705616807392231 0.04155927800846655 0.04326701832750132
-2 -0.01994955452695433 -0.002165527880266258 0.04155134198801231 0.04325875620267877
-1.960000000000001 -0.02262165705092298 -0.002321537094984443 0.04155131163597123 0.0432587246034215
-1.92 -0.02581133837188004 -0.001578856847763989 0.04152572492369981 0.0432320864903012
-1.880000000000001 -0.0289084917631771 -0.001656877511891553 0.0415271199498834 0.04323353884044646
-1.84 -0.03256045467712759 -0.002025496810089302 0.0415354980916472 0.04324226125408346
-1.800000000000001 -0.03552463781518698 -0.001600344421221018 0.04153710947060588 0.04324393884730159
-1.76 -0.03870319382644104 -0.0007056805084846783 0.04153673055804304 0.0432435443645871
-1.720000000000001 -0.04160816342696649 0.001168514940184965 0.04151796488950931 0.04322400758331263
-1.68 -0.04370016746797945 0.003174124608647472 0.0415164735840942 0.04322245499766102
-1.640000000000001 -0.04628366722580764 0.004708035115137736 0.04151841916073729 0.04322448052130598
-1.6 -0.04908124500627219 0.006717224161266612 0.0415182110532453 0.0432242638623287
-1.560000000000001 -0.0516516730829578 0.009002628380761761 0.04151789315588805 0.04322393290203676
-1.52 -0.0533230704944748 0.01190732165733409 0.04151794194254133 0.04322398369341531
-1.48 -0.05486124453786313 0.0152823493308753 0.04151685318036821 0.0432228501921815
-1.44 -0.05709282941088102 0.01834709929605419 0.04151606114526227 0.0432220256110269
-1.4 -0.05963376880486235 0.02100975032698715 0.04152253383950846 0.04322876427911736
-1.359999999999999 -0.06125080662208213 0.02475808012395797 0.04152032174713949 0.04322646128816909
-1.32 -0.06319050126331524 0.02801853574185978 0.04152233696985055 0.04322855931975558
-1.279999999999999 -0.064379387695744 0.03183710860941984 0.0415223806193929 0.0432286047629307
-1.24 -0.06611754772650165 0.03527692066551805 0.04152376807284522 0.0432300492291685
-1.199999999999999 -0.06835511000015268 0.03883874548384077 0.04151814263333812 0.04322419263093297
-1.16 -0.0698191421154776 0.04269717826632523 0.04151588567106702 0.04322184292630316
-1.119999999999999 -0.07100695890667463 0.04618969872672781 0.04151587602358329 0.04322183288238817
-1.08 -0.07266501194392717 0.04917745573753573 0.04151739400015175 0.04322341323515549
-1.039999999999999 -0.07470100561994711 0.05216302228573311 0.04151565168068545 0.04322159932086503
-1 -0.07584389971037257 0.05504994223706439 0.04151554115498237 0.04322148425347575
-0.9600000000000009 -0.07687149453504631 0.05772105400890711 0.0415155607782625 0.04322150468310931
-0.9199999999999999 -0.07928746526920133 0.05998478037179598 0.04149955594881519 0.04320484218842198
-0.8800000000000008 -0.08035829230881351 0.06193938603155222 0.04149958784196896 0.04320487539211885
-0.8399999999999999 -0.08158183539761391 0.06367912403782525 0.04149716991427292 0.04320235810772526
-0.8000000000000007 -0.08317282614405257 0.06443257470758391 0.04149956279579239 0.04320484931675294
-0.7599999999999998 -0.08394329275763567 0.06530336723609559 0.04149959207197484 0.04320487979594274
-0.7200000000000006 -0.08521232424709084 0.066020914872468 0.04149008236577485 0.04319497931999222
-0.6799999999999997 -0.08632525095007124 0.06577265314623436 0.04149088938136029 0.04319581949719931
-0.6400000000000006 -0.08761338057473816 0.06523830545828878 0.04149006081488502 0.04319495688354023
-0.5999999999999996 -0.08870250025291204 0.0641221081613545 0.04149181930148953 0.04319678762930369
-0.5600000000000005 -0.0892049073852571 0.0632052544345403 0.04149040857136555 0.04319531892991683
-0.5199999999999996 -0.08996559257017911 0.06140560324248166 0.04149169985959852 0.04319666327934539
-0.4800000000000004 -0.09033022608642941 0.06025121348986558 0.04148309679974445 0.0431877067053572
-0.4399999999999995 -0.09116818791811653 0.05808508121896254 0.04148327570088367 0.04318789295784377
-0.4000000000000004 -0.09190984699964232 0.05579761281263085 0.04148253992316768 0.04318712694578947
-0.3599999999999994 -0.09186468271049883 0.053772752291089 0.04148097004583742 0.04318549255957115
-0.3200000000000003 -0.09230949767554275 0.05121244457710034 0.04148096689050833 0.0431854892745843
-0.2799999999999994 -0.09272934584816545 0.04863228163843796 0.04148100605263323 0.04318553004594648
-0.2400000000000002 -0.09220728824178118 0.04639780073177201 0.04148104141702511 0.04318556686352044
-0.1999999999999993 -0.09155766106240439 0.04418391764462203 0.04148110731090491 0.0431856354650901
-0.1600000000000001 -0.09081385971076671 0.042068212046231 0.04148119097108006 0.04318572256300192
-0.1199999999999992 -0.09132047422341451 0.03968807533360631 0.04147514323470774 0.04317942631501591
-0.08000000000000007 -0.09085281248938223 0.03780060604881776 0.04147198590929515 0.04317613924981557
-0.03999999999999915 -0.09145495590840629 0.03515268614243577 0.04147756264365692 0.0431819451415298
0 -0.09149302783237354 0.03325426455063723 0.04146982422442438 0.04317388873769401
0.03999999999999915 -0.09196743803814338 0.03084205212738225 0.04147697225209678 0.04318133048979192
0.08000000000000007 -0.0920378688237385 0.02918312226180718 0.04147116008308596 0.04317527948902471
0.1199999999999992 -0.09208935534377688 0.02855552192497362 0.04126584103838019 0.04296152354099165
0.1600000000000001 -0.09249759742327132 0.02672682856564661 0.04127165255199128 0.04296757385942764
0.1999999999999993 -0.09125909951192196 0.0256803335986663 0.04127156559547308 0.04296748332972052
0.2400000000000002 -0.08990872398286538 0.02479114722847452 0.04127145801989177 0.04296737133367845
0.2799999999999994 -0.08850031969690683 0.02402699572603106 0.04127140650512706 0.0429673177020858
0.3200000000000003 -0.08785407606170594 0.02319503386724714 0.04127144735342059 0.04296736022890411
0.3599999999999994 -0.08707942748216142 0.02253031364416043 0.04127147497861994 0.04296738898926916
0.4000000000000004 -0.08607116091926685 0.0217943774791922 0.04127309212778153 0.0429690725897975
0.4399999999999995 -0.08540154617989793 0.02130391717784281 0.0412737182521519 0.04296972444266661
0.4800000000000004 -0.08465789041703817 0.02110375909364947 0.04127323679977787 0.04296922320660841
0.5199999999999996 -0.08432160890318335 0.02030611375100517 0.04128152283583832 0.04297784972976449
0.5600000000000005 -0.08282584315312848 0.02090161124368285 0.04128025927236488 0.04297653424435224
0.5999999999999996 -0.0818380158926057 0.02097366516957076 0.0412816844442949 0.04297801797898313
0.6400000000000006 -0.08047888042838017 0.02172867509896944 0.04127994496080908 0.04297620701720835
0.6799999999999997 -0.07979227118892361 0.0219864839551324 0.04128095820672295 0.04297726189909337
0.7200000000000006 -0.07856313531035392 0.02268883688672214 0.04128006410814521 0.042976331060508
0.7599999999999998 -0.07846161395469892 0.0225167634369451 0.04128910104511561 0.04298573934034971
0.8000000000000007 -0.07704515663698457 0.02334409572504338 0.04128909105407731 0.04298572893876292
0.8399999999999999 -0.0759956923588624 0.02429055056589967 0.04128637182018744 0.04298289796699951
0.8800000000000008 -0.07541644452010513 0.0246919474829078 0.04128878428771454 0.04298540956685666
0.9199999999999999 -0.0742345294719069 0.02562082464071055 0.04128869273850801 0.04298531425573995
0.9600000000000009 -0.07538496312194401 0.02557595710400362 0.04129755768781161 0.04299454348065365
1 -0.07431250084290653 0.02651235688978816 0.04129753100537335 0.04299451570178933
1.039999999999999 -0.07334039670491162 0.02748604041253068 0.04129752300170652 0.04299450736923843
1.08 -0.07340970719984752 0.02806792353139168 0.04129950257988117 0.04299656829159482
1.119999999999999 -0.07270160805387239 0.02923761632741265 0.04129792723775657 0.04299492821602462
1.16 -0.07180618489087882 0.03035291773487071 0.04129787931296661 0.04299487832192479
1.199999999999999 -0.07168174795725815 0.03106619937640973 0.04130017660494345 0.04299727001347548
1.24 -0.07235811217670528 0.03164726785728184 0.04130528411249117 0.0430025873970602
1.279999999999999 -0.07179333592939906 0.03313853222335502 0.04130388970980548 0.0430011356960334
1.32 -0.07112846083737999 0.03450263124133879 0.04130378707518909 0.04300102884398877
1.359999999999999 -0.07082523822328928 0.03602171446685284 0.04130220966708894 0.04299938661754863
1.4 -0.07101140248118119 0.03704493170957862 0.0413044501699939 0.04300171918646938
1.44 -0.07101599612635581 0.03886642734891525 0.0412976039181255 0.04299459161064854
1.48 -0.07152613262351795 0.04007337409693337 0.04129846770336705 0.04299549089027197
1.52 -0.07181439201833237 0.04122822688145546 0.04129972212874417 0.04299679686208821
1.560000000000001 -0.07176367096243781 0.04283734680813701 0.04129973301999111 0.04299680820087472
1.6 -0.07251444201421589 0.04420671548934907 0.04129992744490247 0.04299701061503123
1.640000000000001 -0.07353131680786489 0.04553975617118702 0.04130006192509013 0.04299715062123496
1.68 -0.07407406659311001 0.04724155503714935 0.04129833909914592 0.04299535700148806
1.720000000000001 -0.07490379639640493 0.04829524387669297 0.0412998889531325 0.04299697054156999
1.76 -0.07782450494313435 0.04808674573125463 0.0413336241220844 0.04303209194509931
1.800000000000001 -0.07927618094094621 0.04927375885012892 0.04133401183134473 0.04303249558598232
1.84 -0.08015310739491587 0.05076464597624277 0.0413322090080564 0.04303061868166649
1.880000000000001 -0.08103109907202248 0.05221298339807798 0.041330410150075 0.04302874590559867
1.92 -0.08208003919251428 0.05337254590203465 0.04132892267176818 0.04302719730431763
1.960000000000001 -0.08493257365203077 0.0527897648518211 0.04135457688376636 0.04305390569084149
2 -0.08597294500260827 0.05389380313889332 0.04135229310621155 0.04305152806904306
2.039999999999999 -0.08837203054038503 0.0538042528822815 0.04136038950926919 0.04305995716685872
2.08 -0.0898383651884858 0.05592877783786737 0.04157390285517908 0.0432822441336527
2.119999999999999 -0.09135565595707033 0.05609333318561468 0.04157507730284661 0.04328346684134135
2.16 -0.09328375878182699 0.0557407665327332 0.04158155816475279 0.04329021401271462
2.199999999999999 -0.09524882367252556 0.05528042126549494 0.04158798948198423 0.04329690960353952
2.24 -0.09683609409020158 0.05508683109305567 0.04158402378684656 0.04329278095134859
2.279999999999999 -0.09780752361392203 0.05449734549053275 0.04158696529124017 0.04329584332708292
2.32 -0.09861574648866966 0.05389223944589144 0.04158882839205114 0.04329778298582571
2.359999999999999 -0.09906622644085855 0.05301854264042893 0.04159103887062037 0.04330008429666053
2.4 -0.09859617531545077 0.05246903957382581 0.04159076162699012 0.0432997956606253
2.44 -0.09816167955022896 0.05186108142311038 0.04159008242396156 0.04329908854800706
2.48 -0.09763044667353124 0.05153017602082781 0.04157158519040116 0.04327983123214842
2.52 -0.09603129828600172 0.05046314756579754 0.04157101383593343 0.04327923639976895
2.560000000000001 -0.09448623768961377 0.04932703564480678 0.04157008326486918 0.04327826758998155
2.6 -0.09274700710741879 0.04750358794004881 0.04157218014954919 0.04328045063916403
2.640000000000001 -0.09019970637215874 0.04626184682677884 0.04157065358965006 0.04327886135036262
2.68 -0.08717002226416176 0.04480127859055028 0.04156927148613793 0.04327742245390302
2.720000000000001 -0.08339234703808837 0.04298273775199422 0.04156877078672331 0.04327690117991109
2.76 -0.07907198643411617 0.04125050870335481 0.04156882491305322 0.04327695753038253
2.800000000000001 -0.07494162003927322 0.03923256193457256 0.04156975667561952 0.04327792758063279
2.84 -0.06974177960155273 0.03770136158061883 0.04156281537677754 0.04327070105219909
2.880000000000001 -0.06372490759349608 0.03597623073922989 0.04156191323062395 0.04326976183534952
2.92 -0.05701217875638389 0.03402889656940474 0.04156177540758374 0.04326961834892981
2.960000000000001 -0.050600568251746 0.03176550458609249 0.0415630012493943 0.04327089456263289
3 -0.043068459499886 0.02994403551407371 0.04156164016058147 0.04326947754440177
3.039999999999999 -0.03483343077232812 0.02821679624979846 0.04156038629451576 0.04326817215487998
3.08 -0.0269800360397096 0.02598415284788925 0.04156141519718429 0.04326924333688193
3.119999999999999 -0.01840363110382284 0.02453060819277816 0.04154809986923142 0.04325538085980867
3.16 -0.01093605450907918 0.02145590608605453 0.04156592263039222 0.04327393598806749
3.199999999999999 -0.001781097722461775 0.01990027014024726 0.04155930468037646 0.04326704609540467
3.24 0.007634057445979555 0.01834957875899531 0.04155343043580301 0.04326093046828603
3.279999999999999 0.01772500323961717 0.01662316372869129 0.04155330684383603 0.04326080179771819
3.32 0.02791678104912266 0.01477468050927811 0.04155222129840205 0.04325967164540473
3.359999999999999 0.03727097084317272 0.01242914059696126 0.04155462398534523 0.04326217306277739
3.4 0.04607839220138586 0.009860987941368924 0.04156207690470511 0.04326993223507272
3.44 0.05597850803517866 0.008172218274167382 0.04156185501722706 0.04326970122986666
3.48 0.06551887585579939 0.006247347104498154 0.04156178401759609 0.04326962731274198
3.52 0.07487276410102328 0.004518304184387786 0.04156092808981723 0.04326873621345756
3.560000000000001 0.08359566494687434 0.002097135935848479 0.04156218274564139 0.04327004242519029
3.6 0.09267838537741352 0.000266770839353964 0.04156205247379655 0.04326990680025723
3.640000000000001 0.1015621788188462 -0.001984828930341655 0.04156134346617244 0.04326916865832269
3.68 0.1099441733164674 -0.004226677904824232 0.04156064748898505 0.04326844408226734
3.720000000000001 0.1161111028748617 -0.008051002296510535 0.04157929045283343 0.0432878531167155
3.76 0.1229755200128184 -0.01135569488949174 0.04158267407979234 0.04329137578257161
3.800000000000001 0.1305011431791077 -0.01429016300725083 0.04158206274527927 0.04329073932729979
3.84 0.1379040340805335 -0.01777954368971853 0.04158094980059372 0.04328958064985363
3.880000000000001 0.1449056650584498 -0.02135579285721809 0.04158015833656439 0.04328875666324213
3.92 0.1506737533837345 -0.02557337255864015 0.04157681741229373 0.04328527845479924
3.960000000000001 0.1565149389218138 -0.03026428960585967 0.041578498042288 0.04328702814469397
4 0.1626101294550058 -0.03481234498977375 0.04157796344310103 0.04328647157793129
4.039999999999999 0.1688976005093163 -0.03974053922242318 0.04157737539220167 0.04328585936303586
4.079999999999998 0.1740065016317988 -0.04519627392607061 0.04157803060516436 0.04328654149979626
4.120000000000001 0.1794554784835206 -0.05050754608516051 0.04157752238533257 0.04328601239636063
4.16 0.1839967276193484 -0.05645097961545824 0.04157886693966195 0.04328741220067869
4.199999999999999 0.1885466151805464 -0.06268388417334772 0.04157972670137308 0.04328830729143809
4.239999999999998 0.192810497213544 -0.06908272468843628 0.04158048614263213 0.04328909793941006
4.280000000000001 0.1968400348609979 -0.07489869367966356 0.04157478585646496 0.04328316341893988
4.32 0.1991456280914994 -0.08233822895192428 0.04159478333164565 0.04330398262385894
4.359999999999999 0.2023644964993169 -0.0885371132920207 0.04159582945255527 0.04330507173162834
4.399999999999999 0.2049023164144858 -0.09525042119487849 0.04160148094239057 0.04331095545064367
4.440000000000001 0.2079624579613733 -0.1008872782899439 0.04160073412283159 0.04331017794301856
4.48 0.2109191949469096 -0.1063976270058674 0.04160069453386521 0.04331013672727526
4.52 0.2125986730736637 -0.1122385189677053 0.04160380413821854 0.04331337411047811
4.559999999999999 0.2143622888324417 -0.1178608396699881 0.04160432984755239 0.04331392142208871
4.600000000000001 0.2166148506396352 -0.1225385729173861 0.04160378408155223 0.04331335322964979
4.640000000000001 0.2181890090342568 -0.1271092689129047 0.04160336431425814 0.04331291621341474
4.68 0.2197846245901757 -0.131176866530016 0.04160286609305383 0.04331239751946694
4.719999999999999 0.220681082259124 -0.1350586826612266 0.04160247319490571 0.04331198847647606
4.760000000000002 0.2203572790992477 -0.1388244730660303 0.04160489373636695 0.04331450848203883
4.800000000000001 0.2205917337395378 -0.1416155775932768 0.04160463426312852 0.04331423834661057
4.84 0.2201640454402 -0.1444958280920581 0.04160515156066483 0.04331477690076879
4.879999999999999 0.2190973873965779 -0.1469445135899591 0.04160667468589065 0.04331636261376042
4.920000000000002 0.2180142862936645 -0.1484356577953012 0.04160338719209769 0.04331294003134303
4.960000000000001 0.2169833137463392 -0.1494943889789226 0.04160307076396693 0.04331261060065055
5 0.2151434667119475 -0.150814682653426 0.04160457976849794 0.04331418161270437
5.039999999999999 0.2128572902378143 -0.1514507542333851 0.0416056962571558 0.04331534397975061
5.079999999999998 0.2103763812066542 -0.151969185554798 0.04160769830672952 0.04331742829689348
5.120000000000001 0.2085161105573282 -0.1514554239021795 0.04160692946372236 0.04331662786083983
5.16 0.2060974540907454 -0.150318789399638 0.04160442998083989 0.04331402567002066
5.199999999999999 0.202305227860609 -0.1500618803205119 0.04161232040771638 0.04332224032774901
5.239999999999998 0.1980905171002415 -0.149235017784335 0.04162001336485412 0.04333024940137641
5.280000000000001 0.1950420732670005 -0.1473553088377382 0.04161922142650373 0.04332942492095319
5.32 0.1914093485762609 -0.1454956006570395 0.04161898847419383 0.04332918239624283
5.359999999999999 0.1880704100563213 -0.1430348356323724 0.04161780511785346 0.04332795041380905
5.399999999999999 0.1840161457478882 -0.1408110693810623 0.04161715920340771 0.04332727795765723
5.440000000000001 0.179721550841083 -0.1383321383061059 0.04161752412504852 0.04332765787453928
5.48 0.1751479175751511 -0.1358076126823145 0.04161851727956287 0.04332869183943554
5.52 0.1703784457472709 -0.1332875948488608 0.04161945929150979 0.04332967256023063
5.559999999999999 0.165206770653203 -0.1304899277012984 0.04162188239814391 0.04333219523637352
5.600000000000001 0.1593730416269862 -0.1279362519940647 0.04162943028387244 0.04334005327736461
5.640000000000001 0.1542106225124293 -0.125151556288724 0.04163103435808378 0.0433417232656711
5.68 0.1489749565593547 -0.1201428774039064 0.0418409191244559 0.04356023254851851
5.719999999999999 0.1440815376133829 -0.117263829285031 0.04184040443078788 0.04355969670522588
5.760000000000002 0.1395560206336472 -0.1138937087984242 0.04184076834233546 0.04356007557050827
5.800000000000001 0.1337519738691121 -0.10980773600297 0.04164639207459776 0.04335771205647118
5.84 0.1286929173140753 -0.1073554808498619 0.04164675161818193 0.04335808637430322
5.879999999999999 0.1236801942185228 -0.1050659907475884 0.04164680032677588 0.04335813708441486
5.920000000000002 0.1183803352721039 -0.1027738709735635 0.0416485003198967 0.04335990693309943
5.960000000000001 0.113610712295051 -0.1000430207304733 0.04164567818059815 0.04335696882737179
6 0.1090388347091354 -0.09764294255895892 0.04164536248441875 0.04335664015870779
6.039999999999999 0.1034838077631225 -0.09624064788223355 0.04165086401442103 0.04336236775578946
6.079999999999998 0.0991137108694643 -0.09426602174528277 0.04165084266046536 0.04336234552436401
6.120000000000001 0.09503001595705354 -0.09269306311302113 0.04164915185101899 0.04336058523672644
6.16 0.09095047503259718 -0.09133584212089493 0.04164827874914345 0.04335967625763294
6.199999999999999 0.08660692311730424 -0.09043715607535637 0.04164782453637252 0.04335920338049873
6.239999999999998 0.08294677163944417 -0.08935177977387944 0.04164629695549296 0.04335761302876309
6.280000000000001 0.07909501489544324 -0.08835534153345015 0.04164617380474153 0.04335748481754108
6.32 0.07532229277549993 -0.08764459625526257 0.04164610096008808 0.04335740897957886
6.359999999999999 0.07147953551845961 -0.08694076654213701 0.04164302393977154 0.04335420551934543
6.399999999999999 0.06815292845999539 -0.08683955318971812 0.04164128329177628 0.04335239334520955
6.440000000000001 0.06359271233434034 -0.08773571452767531 0.04164950792257988 0.04336095593986396
6.48 0.0603198139274727 -0.08759686568963748 0.04164924458848528 0.04336068178493049
6.52 0.05687721391810408 -0.08819983235516006 0.04164830051743069 0.04335969892041554
6.559999999999999 0.05388925208727008 -0.0883048999174096 0.04164848582582441 0.04335989184344144
6.600000000000001 0.05113537516647766 -0.08871854572521679 0.04164638995702544 0.04335770985188425
6.640000000000001 0.04751108253882731 -0.08934765286580557 0.04164791207811989 0.04335929451948307
6.68 0.04360381986765873 -0.09057429010227165 0.04165390734683398 0.04336553614382693
6.719999999999999 0.04035502599133564 -0.09119985848470283 0.0416543069523488 0.04336595216980144
6.760000000000002 0.03625985823070171 -0.09105927181953766 0.04163358771926882 0.04334438154874251
6.800000000000001 0.03258644232303157 -0.09105314012062779 0.04163203350117801 0.04334276346522802
6.84 0.03006232913577296 -0.09072001051870772 0.0416299822250472 0.0433406278987264
6.879999999999999 0.02761294097980424 -0.09014431631986236 0.04162736408489084 0.04333790217480726
6.920000000000002 0.02444735894572944 -0.08971235179365394 0.04162618110428416 0.04333667058354672
6.960000000000001 0.02121901730863824 -0.08881125082133815 0.04162608881618079 0.04333657450317065
7 0.01793463726064037 -0.08756734066804049 0.04162588866994203 0.04333636613258782
7.039999999999999 0.0146799449705563 -0.08576693331742678 0.0416255778713219 0.043336042562732
7.079999999999998 0.01156441436325687 -0.0832815989703877 0.04162568745849306 0.0433361566530235
7.120000000000001 0.008065656739596406 -0.08077450904714732 0.04162528159909656 0.04333573411618485
7.16 0.005069451857744615 -0.0773796217743635 0.04162380166959096 0.04333419337389791
7.199999999999999 0.002279674625784587 -0.07344396072397488 0.04162170975868093 0.04333201550286595
7.239999999999998 -0.0008382441089998827 -0.0690008646495785 0.04162189919121398 0.04333221271949896
7.280000000000001 -0.004704518597131187 -0.0649008245817766 0.04162183444948769 0.04333214531742675
7.32 -0.007833664120313232 -0.05988976190643693 0.04162048494505821 0.04333074035960068
7.359999999999999 -0.01117284924164583 -0.05455050352779128 0.04161938112055662 0.0433295911771021
7.399999999999999 -0.01537787009078379 -0.04914189464836095 0.0416210494824318 0.0433313280947602
7.440000000000001 -0.01971225427291568 -0.04381257866509748 0.04162318508083855 0.04333355144848126
7.48 -0.02287659255095851 -0.0374462345341804 0.04162115014135022 0.04333143288992212
7.52 -0.02686865498649308 -0.03127363795886826 0.04162150227223625 0.04333179949045585
7.559999999999999 -0.03022801122403518 -0.0245895163189273 0.04161979637058991 0.04333002349045455
7.600000000000001 -0.03365921623366722 -0.01758443801186118 0.04161996430795372 0.04333019832864583
7.640000000000001 -0.03657917560697208 -0.01066437219316413 0.04161880117254795 0.04332898739805871
7.68 -0.03984189931502098 -0.003737195816720257 0.04161838523110162 0.04332855436488192
7.719999999999999 -0.04295025128686468 0.00330013794186993 0.04161849365462939 0.04332866724371398
7.760000000000002 -0.04623353724993078 0.009709933557832676 0.04161789098969928 0.0433280398142728
7.800000000000001 -0.04870631114968082 0.01638844637389365 0.04161637033092277 0.04332645666908102
7.84 -0.05151051403409331 0.02254328085543405 0.04161481978043877 0.04332484240388144
7.879999999999999 -0.05439675242390199 0.02825774996080762 0.04161395126284943 0.04332393819745013
7.920000000000002 -0.05716545404483907 0.03377859677641128 0.04161386025868526 0.04332384345377249
7.960000000000001 -0.06013656853323347 0.03935756295435346 0.04161215264675646 0.04332206567321035
8 -0.06200294532138907 0.04489628700088833 0.04161249478276079 0.04332242186815597
8.039999999999999 -0.06331833693503877 0.05003247955709952 0.04161136714154679 0.04332124789027638
8.079999999999998 -0.06465956442554072 0.05465093447745753 0.04160930446746514 0.04331910045746303
8.120000000000001 -0.06621682575969425 0.05895707759488162 0.04160925295069756 0.04331904682378521
8.16 -0.06802203015138973 0.06230985519132592 0.04160842377516241 0.04331818357603898
8.199999999999999 -0.0691043317174168 0.06576329225611229 0.04160650273053768 0.04331618359247409
8.239999999999998 -0.07005116026778011 0.06877382253334592 0.04160401233490456 0.04331359086231455
8.280000000000001 -0.0718907878131671 0.07122955637824449 0.04160449373634143 0.04331409204534251
8.32 -0.07495528520877613 0.07305622700196146 0.04160314716587876 0.04331269014204486
8.359999999999999 -0.07605197866343752 0.07505827611349566 0.04160024338592999 0.043309667040916
8.399999999999999 -0.07811476213865559 0.07678521750692868 0.04159875546919266 0.0433081179831886
8.440000000000001 -0.07933438643004696 0.07817915405559604 0.04159602416530712 0.04330527444545319
8.48 -0.0814151013691149 0.0790428574348674 0.04159649767062234 0.04330576740789463
8.52 -0.08356161307301686 0.07948288198071409 0.04159563149592356 0.04330486564062718
8.559999999999999 -0.08677674132435195 0.07946275354464502 0.04160350684426761 0.04331306460022095
8.600000000000001 -0.08970277399844158 0.0798539059314529 0.0416032494680861 0.0433127966480212
8.640000000000001 -0.09173848885236194 0.08072650619280812 0.04160218745541304 0.0433116909954692
8.68 -0.09367637957293994 0.080833200708299 0.04159922731073743 0.04330860921349249
8.719999999999999 -0.09583679717066061 0.08078389711177945 0.04159686865333062 0.04330615363490356
8.760000000000002 -0.09791942215073413 0.08058812067944358 0.04159427527801737 0.04330345369345642
8.800000000000001 -0.1001427936350392 0.08020244563427417 0.04159118175486967 0.04330023305226287
8.84 -0.103573891093507 0.07899219580416682 0.04159429486418814 0.04330347408445574
8.879999999999999 -0.1068249677152444 0.07814847229694864 0.04159532203018595 0.04330454345842426
8.920000000000002 -0.1106836511387812 0.0767685717402376 0.0416010207390514 0.04331047633677874
8.960000000000001 -0.113827876052038 0.07581688202168314 0.04160120932812569 0.04331067267529386
9 -0.1167910440456521 0.07466342333866576 0.04159862973418949 0.04330798708152363
9.039999999999999 -0.1191435859499298 0.07390494274271402 0.04159691648975313 0.04330620343700477
9.079999999999998 -0.1216103781329224 0.0728109941934552 0.04159281139435565 0.04330192965636395
9.120000000000001 -0.1240415546759209 0.07175971880158888 0.04159123448665615 0.04330028795088675
9.16 -0.1270537617968235 0.0701913279155689 0.04158993040248021 0.04329893027970849
9.199999999999999 -0.1301055701823337 0.06881226870263292 0.04159009931468888 0.04329910613280264
9.239999999999998 -0.1331239211110266 0.06738321398829708 0.04159064273937672 0.04329967188772081
9.280000000000001 -0.1364454090053035 0.06542516541693975 0.04159288907899516 0.04330201053319537
9.32 -0.1383658480102785 0.06422096823357885 0.04159057362692574 0.04329959993532349
9.359999999999999 -0.1408192379485806 0.06255291315534091 0.04158808225818932 0.04329700619207421
9.399999999999999 -0.1440705857348756 0.06059121132509144 0.04159496311155388 0.04330416979122462
9.440000000000001 -0.1464639688259484 0.05923678036770107 0.04159571643960225 0.04330495407478385
9.48 -0.1479864230727828 0.05835159015467169 0.04159593263670774 0.04330517915579041
9.52 -0.1495214796616281 0.05703112804333925 0.04159364550775237 0.04330279804487675
9.559999999999999 -0.1505169136236755 0.05633011747636092 0.04159382100906876 0.04330298075783609
9.600000000000001 -0.151155675409707 0.05579020492010486 0.04159429222560491 0.0433034713374487
9.640000000000001 -0.1520086575834028 0.05481620993193964 0.04159329897527684 0.04330243727280158
9.68 -0.1540790239319167 0.05321425830001014 0.04160923767406436 0.04331903091940959
9.719999999999999 -0.1540118919422988 0.05311201692042123 0.04160927835216985 0.04331907326904654
9.760000000000002 -0.1532729633058922 0.05305537448693444 0.04160636574744071 0.0433160409805123
9.800000000000001 -0.1521985130737985 0.05332203630986922 0.04160478407987554 0.04331439431957858
9.84 -0.1520462429013867 0.05281430858199396 0.04160808336234433 0.04331782917508824
9.879999999999999 -0.1507807853035015 0.05310365583760796 0.04160489672361331 0.04331451159203614
9.920000000000002 -0.1487111405111766 0.05392696422514952 0.04160144797819294 0.04331092113189196
9.960000000000001 -0.1476439498063449 0.05406608302515947 0.04160475817885961 0.04331436735424653
10 -0.1457495141392234 0.05481777786751942 0.04160343287572486 0.04331298759218692
10.04 -0.1435366324075627 0.05573460683135216 0.04160126638522711 0.0433107320769671
10.08 -0.1403927427508148 0.05740448211025346 0.04160015274036966 0.04330957267057781
10.12 -0.1377523519892913 0.05847874733522596 0.04159839853441526 0.04330774638136355
10.16 -0.1340072197964461 0.06027115869920134 0.0415954967863349 0.04330472539559597
10.2 -0.1302985251654711 0.06191868653451454 0.04159208181701753 0.04330117009947143
10.24 -0.1263448750882904 0.06359452195374245 0.04158902379253223 0.04329798641563976
10.28 -0.1228230671744341 0.06493213516640065 0.0415874555452975 0.04329635372650033
10.32 -0.1184744533498892 0.06662334806148416 0.04158611706812732 0.04329496024906211
10.36 -0.1142112360601388 0.0679593408410267 0.04158370870488373 0.04329245292214035
10.4 -0.1119577265465167 0.06807448610490417 0.04159965810113013 0.04330905770578372
10.44 -0.107482274023848 0.06914250329354389 0.04159703024951988 0.04330632187135081
10.48 -0.1028313081473997 0.07010471444570714 0.04159522663273093 0.04330444414092807
10.52 -0.09873502969413187 0.07037085184747607 0.04159268235223187 0.04330179531168324
10.56 -0.0939824691107521 0.07081199041006174 0.04159077203851089 0.04329980649997289
10.6 -0.08994291788531815 0.07041745818359611 0.04158915799894481 0.04329812613681854
10.64 -0.0861998451551849 0.06987580340942988 0.04159020900874613 0.04329922033437237
10.68 -0.08281351877200706 0.06856932753466989 0.04159325045535445 0.04330238675911435
10.72 -0.07848132866749487 0.0677813227282907 0.04159179328066819 0.04330086970668037
10.76 -0.07385434040550649 0.06694126677904833 0.04159050768919823 0.04329953128810435
10.8 -0.06941151931190209 0.06573025969357071 0.04158862737190978 0.04329757370543017
10.84 -0.06620090897275947 0.06343298593728704 0.04159013074765709 0.04329913885740415
10.88 -0.06184685098060088 0.06180229772302068 0.04158804748199823 0.0432969699868712
10.92 -0.05773344076498657 0.0598376825291834 0.04158601470797557 0.04329485368276034
10.96 -0.0536794814088279 0.05779921136869901 0.04158456985632785 0.04329334945973919
11 -0.04975413135694763 0.05567988635970547 0.04158278853729685 0.04329149494332662
11.04 -0.04593813187720535 0.05335922223864218 0.04157859725108562 0.0432871314301472
11.08 -0.04290070490915778 0.0506490172532143 0.04157608368006766 0.04328451457228746
11.12 -0.03941753692051775 0.04850757404822191 0.04157539546526598 0.04328379807758725
11.16 -0.03678524228230123 0.04586120662659626 0.04157340883943872 0.0432817298179784
11.2 -0.03379049481322306 0.04361843916032392 0.04157140285994985 0.04327964140943357
11.24 -0.03102873484459841 0.04133379386568015 0.04156823826411137 0.04327634677505338
11.28 -0.02976231250435436 0.03833145812758501 0.04157174253462651 0.04327999504191145
11.32 -0.0277221125795882 0.03619500087662003 0.0415698537707345 0.04327802866554862
11.36 -0.02629176086444492 0.03387632248785866 0.04156905771901363 0.04327719990272965
11.4 -0.02539768240286858 0.03186611102256133 0.04157028188478788 0.04327847437152527
11.44 -0.02371653164792803 0.03030984297005172 0.04156828413918473 0.04327639453521032
11.48 -0.02340353689234312 0.02804966161032615 0.04156935088642574 0.0432775051168816
11.52 -0.02215342389438862 0.02696220540872349 0.04156878750312316 0.04327691858321581
11.56 -0.0218878960121549 0.02543360591206955 0.04156867522613032 0.04327680169257333
11.6 -0.0209580414640568 0.02455942802864181 0.04156675995193313 0.0432748077165525
11.64 -0.02019463406953438 0.02371709135098809 0.04156469872305214 0.04327266178832553
11.68 -0.02013664594975272 0.02261225965264656 0.04156313033320544 0.04327102895071396
11.72 -0.01961097239180723 0.02197568360966946 0.04156096407540331 0.04326877367775162
11.76 -0.01913531535767473 0.02136444217035538 0.04155895808015503 0.04326668525279981
11.8 -0.01914336110177248 0.02081648275576725 0.04155897944778123 0.04326670749845753
11.84 -0.01947575980000255 0.01980226799105556 0.04155747924771207 0.04326514565265565
11.88 -0.02112016710643934 0.01791443757905939 0.04157061906564851 0.04327882540771203
11.92 -0.02085456371734235 0.01738032799577761 0.04156956781042144 0.04327773095464749
11.96 -0.0211506707706427 0.01643177039089231 0.04156830450673247 0.0432764157396947
12 -0.02177264096793719 0.01516773251934686 0.04156849252404581 0.04327661148295426
