-10	0.048370956	-0.003439818	0.058081582	0.059542498					HbO2 AUC	HbRAUC	HbO2AMP	HbRAMP		Normalized				
-9.96	0.049304627	-0.004410339	0.058082515	0.059543455				-2.48	0.052858101	-0.04002314	0.058459693	0.05993012		-2.48	0.135421879	-0.118566656	-7.86113E-05	-8.05886E-05
-9.92	0.050515439	-0.00574415	0.058083553	0.059544519				-2.44	0.04757109	-0.040631629	0.058449481	0.059919651		-2.44	0.130134868	-0.119175145	-8.88231E-05	-9.10573E-05
-9.88	0.051268309	-0.007081646	0.058083874	0.059544848				-2.4	0.043312817	-0.041011816	0.058449364	0.059919531		-2.4	0.125876595	-0.119555332	-8.89405E-05	-9.11776E-05
-9.84	0.051873105	-0.008580877	0.058085018	0.059546021				-2.36	0.039348472	-0.041418924	0.058449427	0.059919595		-2.36	0.12191225	-0.11996244	-8.88779E-05	-9.11134E-05
-9.8	0.052841262	-0.010419502	0.058087112	0.059548168				-2.32	0.036100577	-0.042019594	0.058449936	0.059920117		-2.32	0.118664355	-0.12056311	-8.83687E-05	-9.05915E-05
-9.76	0.05334856	-0.012208456	0.058088778	0.059549875				-2.28	0.032617217	-0.042414063	0.058450199	0.059920387		-2.28	0.115180995	-0.120957579	-8.81058E-05	-9.0322E-05
-9.72	0.052311451	-0.01409844	0.058079895	0.059540769				-2.24	0.02837817	-0.042703436	0.058457654	0.059928029		-2.24	0.110941948	-0.121246952	-8.06509E-05	-8.26795E-05
-9.68	0.053004706	-0.015945866	0.058079887	0.059540761				-2.2	0.023576604	-0.04302806	0.058446752	0.059916853		-2.2	0.106140382	-0.121571576	-9.15525E-05	-9.38553E-05
-9.64	0.053054946	-0.017852624	0.058080605	0.059541497				-2.16	0.019266435	-0.043402204	0.058436648	0.059906495		-2.16	0.101830212	-0.12194572	-0.000101657	-0.000104214
-9.6	0.053017102	-0.019813401	0.058082893	0.059543842				-2.12	0.016744584	-0.043651701	0.058437002	0.059906858		-2.12	0.099308362	-0.122195218	-0.000101303	-0.000103851
-9.56	0.051609121	-0.022045326	0.058073878	0.0595346				-2.08	0.014154183	-0.043583207	0.058437072	0.05990693		-2.08	0.096717961	-0.122126723	-0.000101232	-0.000103778
-9.52	0.049863355	-0.024270429	0.058063042	0.059523492				-2.04	0.011133858	-0.04352573	0.058446003	0.059916085		-2.04	0.093697636	-0.122069246	-9.23018E-05	-9.46235E-05
-9.48	0.049187823	-0.026258942	0.058063462	0.059523922				-2	0.008719504	-0.043193682	0.058446059	0.059916143		-2	0.091283282	-0.121737199	-9.22457E-05	-9.45659E-05
-9.44	0.048706752	-0.028216555	0.05806456	0.059525048				-1.96	0.005011036	-0.042684089	0.058436135	0.059905969		-1.96	0.087574814	-0.121227605	-0.000102169	-0.000104739
-9.4	0.04612647	-0.030207812	0.05805745	0.059517759				-1.92	0.003057486	-0.041911184	0.058436075	0.059905908		-1.92	0.085621264	-0.120454701	-0.000102229	-0.0001048
-9.36	0.044762188	-0.032140276	0.058058591	0.059518929				-1.88	0.000438664	-0.041039634	0.058445742	0.059915818		-1.88	0.083002442	-0.11958315	-9.25627E-05	-9.48909E-05
-9.32	0.041930766	-0.034254117	0.058049297	0.059509401				-1.84	-0.002586283	-0.039713863	0.058457282	0.059927648		-1.84	0.079977495	-0.11825738	-8.10226E-05	-8.30605E-05
-9.28	0.04034536	-0.036064804	0.058050258	0.059510386				-1.8	-0.004560175	-0.038202677	0.058457277	0.059927643		-1.8	0.078003603	-0.116746194	-8.10272E-05	-8.30653E-05
-9.24	0.038216679	-0.03785545	0.058050573	0.05951071				-1.76	-0.006328582	-0.036415344	0.058457348	0.059927715		-1.76	0.076235196	-0.11495886	-8.09568E-05	-8.29931E-05
-9.2	0.036096259	-0.039566073	0.05805225	0.059512428				-1.72	-0.009273511	-0.034255708	0.058466179	0.059936769		-1.72	0.073290267	-0.112799225	-7.21252E-05	-7.39393E-05
-9.16	0.032247654	-0.041238055	0.058041677	0.059501589				-1.68	-0.010844583	-0.032023753	0.058466359	0.059936954		-1.68	0.071719195	-0.110567269	-7.19454E-05	-7.3755E-05
-9.12	0.028942571	-0.042736997	0.058038814	0.059498654				-1.64	-0.013481656	-0.029251109	0.058473212	0.059943979		-1.64	0.069082122	-0.107794625	-6.50927E-05	-6.673E-05
-9.08	0.026666142	-0.044071134	0.058039662	0.059499524				-1.6	-0.015429116	-0.026186936	0.058473233	0.059944001		-1.6	0.067134662	-0.104730452	-6.50712E-05	-6.6708E-05
-9.04	0.023287681	-0.045231059	0.058037062	0.059496858				-1.56	-0.016837647	-0.023027109	0.058473541	0.059944316		-1.56	0.065726131	-0.101570626	-6.47636E-05	-6.63926E-05
-9	0.020877451	-0.046207055	0.058038829	0.05949867				-1.52	-0.018559542	-0.019585073	0.058473528	0.059944303		-1.52	0.064004236	-0.098128589	-6.47767E-05	-6.6406E-05
-8.96	0.0167475	-0.046981476	0.058028538	0.05948812				-1.48	-0.020709193	-0.015660391	0.058473355	0.059944126		-1.48	0.061854585	-0.094203907	-6.49491E-05	-6.65827E-05
-8.92	0.014366745	-0.047485863	0.058030081	0.059489702				-1.44	-0.02256498	-0.011459272	0.058473361	0.059944131		-1.44	0.059998798	-0.090002788	-6.49439E-05	-6.65774E-05
-8.88	0.01247101	-0.047811358	0.058031805	0.059491469				-1.4	-0.024615541	-0.007011581	0.058473323	0.059944093		-1.4	0.057948237	-0.085555097	-6.49811E-05	-6.66156E-05
-8.84	0.008603415	-0.047926947	0.058025032	0.059484526				-1.36	-0.026682119	-0.002375624	0.058473292	0.059944061		-1.36	0.055881659	-0.080919141	-6.50123E-05	-6.66476E-05
-8.8	0.006239385	-0.047777236	0.058026323	0.05948585				-1.32	-0.02856707	0.002198499	0.058473686	0.059944465		-1.32	0.053996708	-0.076345017	-6.46182E-05	-6.62435E-05
-8.76	0.003561648	-0.047417991	0.058026955	0.059486498				-1.28	-0.034077238	0.007052866	0.058429995	0.059899674		-1.28	0.04848654	-0.071490651	-0.00010831	-0.000111034
-8.72	0.001151943	-0.04692268	0.058028211	0.059487785				-1.24	-0.036121281	0.011924272	0.058430219	0.059899904		-1.24	0.046442497	-0.066619244	-0.000108086	-0.000110804
-8.68	-0.001333056	-0.046283734	0.058028213	0.059487786				-1.2	-0.038551234	0.017005167	0.0584302	0.059899885		-1.2	0.044012544	-0.061538349	-0.000108105	-0.000110824
-8.64	-0.003106353	-0.045919299	0.05802948	0.059489085				-1.16	-0.04171544	0.021911849	0.058440837	0.05991079		-1.16	0.040848338	-0.056631667	-9.74675E-05	-9.9919E-05
-8.6	-0.005406819	-0.045150359	0.05803074	0.059490378				-1.12	-0.044252422	0.026894105	0.058440941	0.059910896		-1.12	0.038311356	-0.051649412	-9.73639E-05	-9.98129E-05
-8.56	-0.007684555	-0.044290532	0.058031128	0.059490775				-1.08	-0.047660337	0.031827851	0.058448894	0.05991905		-1.08	0.034903441	-0.046715665	-8.941E-05	-9.1659E-05
-8.52	-0.011450647	-0.043456345	0.058023319	0.059482769				-1.04	-0.05030177	0.036569213	0.058448842	0.059918996		-1.04	0.032262008	-0.041974303	-8.94621E-05	-9.17123E-05
-8.48	-0.013393415	-0.0425076	0.058024484	0.059483964				-1	-0.0539648	0.041195772	0.058460379	0.059930823		-1	0.028598978	-0.037347745	-7.79252E-05	-7.98853E-05
-8.44	-0.016823528	-0.041606546	0.058019487	0.059478841				-0.96	-0.056674038	0.045534662	0.058460334	0.059930777		-0.96	0.02588974	-0.033008854	-7.79702E-05	-7.99313E-05
-8.4	-0.018468459	-0.040688665	0.058020677	0.059480061				-0.92	-0.05956975	0.04958829	0.058460254	0.059930695		-0.92	0.022994028	-0.028955226	-7.80503E-05	-8.00135E-05
-8.36	-0.020548395	-0.03977293	0.058020985	0.059480377				-0.88	-0.062312873	0.053368029	0.058460258	0.059930699		-0.88	0.020250905	-0.025175488	-7.80467E-05	-8.00097E-05
-8.32	-0.022622458	-0.038870005	0.05802191	0.059481325				-0.84	-0.065155084	0.056824435	0.058460118	0.059930555		-0.84	0.017408694	-0.021719081	-7.81866E-05	-8.01532E-05
-8.28	-0.024355129	-0.037999995	0.058022677	0.059482112				-0.8	-0.068686743	0.060032913	0.058471016	0.059941727		-0.8	0.013877035	-0.018510603	-6.72889E-05	-6.89814E-05
-8.24	-0.027687607	-0.037133728	0.058015265	0.059474514				-0.76	-0.072283628	0.062909649	0.058480859	0.059951818		-0.76	0.01028015	-0.015633867	-5.74457E-05	-5.88906E-05
-8.2	-0.029425348	-0.036204391	0.058016319	0.059475593				-0.72	-0.074911195	0.065428918	0.058480697	0.059951652		-0.72	0.007652583	-0.013114598	-5.76078E-05	-5.90568E-05
-8.16	-0.030986819	-0.03519686	0.058017702	0.059477011				-0.68	-0.076788447	0.067410641	0.058480946	0.059951907		-0.68	0.005775331	-0.011132875	-5.7359E-05	-5.88017E-05
-8.12	-0.034531732	-0.034204706	0.058006383	0.059465408				-0.64	-0.080040773	0.069330908	0.058493522	0.0599648		-0.64	0.002523005	-0.009212608	-4.47824E-05	-4.59088E-05
-8.08	-0.036443441	-0.033037114	0.05800659	0.05946562				-0.6	-0.081695483	0.070702072	0.05849365	0.059964931		-0.6	0.000868295	-0.007841445	-4.46541E-05	-4.57773E-05
-8.04	-0.039788863	-0.031808	0.057998194	0.059457012				-0.56	-0.083207897	0.071987313	0.058493769	0.059965053		-0.56	-0.000644119	-0.006556204	-4.45351E-05	-4.56553E-05
-8	-0.041290143	-0.030453513	0.057999763	0.059458621				-0.52	-0.084663953	0.07298349	0.058493498	0.059964776		-0.52	-0.002100175	-0.005560027	-4.48061E-05	-4.59331E-05
-7.96	-0.043207128	-0.028978009	0.058000063	0.059458929				-0.48	-0.085256439	0.073601715	0.058493788	0.059965072		-0.48	-0.002692661	-0.004941801	-4.45167E-05	-4.56364E-05
-7.92	-0.044740657	-0.027339681	0.058001203	0.059460097				-0.44	-0.086736259	0.074093426	0.058505968	0.059977558		-0.44	-0.004172481	-0.00445009	-3.23368E-05	-3.31501E-05
-7.88	-0.046454446	-0.025606268	0.058001519	0.059460422				-0.4	-0.087244383	0.07461689	0.058505976	0.059977567		-0.4	-0.004680605	-0.003926627	-3.23284E-05	-3.31416E-05
-7.84	-0.048273684	-0.023726545	0.058002338	0.059461261				-0.36	-0.087285419	0.075059046	0.058505921	0.05997751		-0.36	-0.004721641	-0.003484471	-3.23839E-05	-3.31985E-05
-7.8	-0.050336452	-0.021730612	0.058003266	0.059462213				-0.32	-0.08722982	0.075424691	0.058505951	0.059977541		-0.32	-0.004666042	-0.003118825	-3.2354E-05	-3.31678E-05
-7.76	-0.052269269	-0.019602064	0.058003762	0.059462721				-0.28	-0.087494465	0.075627866	0.058515508	0.059987339		-0.28	-0.004930687	-0.00291565	-2.27963E-05	-2.33697E-05
-7.72	-0.053898774	-0.01736221	0.058003983	0.059462948				-0.24	-0.08691112	0.075972897	0.05851553	0.059987361		-0.24	-0.004347342	-0.002570619	-2.27749E-05	-2.33477E-05
-7.68	-0.055739426	-0.01501392	0.058004391	0.059463366				-0.2	-0.087008709	0.076421411	0.058527847	0.059999988		-0.2	-0.004444931	-0.002122105	-1.04572E-05	-1.07202E-05
-7.64	-0.057281329	-0.012611303	0.058005117	0.05946411				-0.16	-0.086664805	0.076907788	0.058537338	0.060009718		-0.16	-0.004101027	-0.001635728	-9.6651E-07	-9.90821E-07
-7.6	-0.058694383	-0.010111563	0.058007086	0.059466129				-0.12	-0.087157987	0.077380611	0.058524155	0.059996203		-0.12	-0.004594209	-0.001162905	-1.41498E-05	-1.45057E-05
-7.56	-0.061561803	-0.007612401	0.057998989	0.059457828				-0.08	-0.085089178	0.077541751	0.058525152	0.059997225		-0.08	-0.0025254	-0.001001765	-1.31528E-05	-1.34836E-05
-7.52	-0.062276929	-0.005043036	0.05799954	0.059458392				-0.04	-0.083317392	0.077914343	0.058525295	0.059997372		-0.04	-0.000753614	-0.000629173	-1.30094E-05	-1.33366E-05
-7.48	-0.062589859	-0.002685525	0.057999868	0.059458729				0	-0.082563778	0.078543516	0.058538305	0.060010709		0	0	0	0	0
-7.44	-0.062815285	-0.000197484	0.05800091	0.059459797				0.04	-0.080670969	0.079112902	0.058538316	0.06001072		0.04	0.001892809	0.000569385	1.15368E-08	1.18269E-08
-7.4	-0.062705256	0.002190551	0.058002238	0.059461159				0.08	-0.078635401	0.079618739	0.05853829	0.060010694		0.08	0.003928377	0.001075222	-1.40689E-08	-1.44228E-08
-7.36	-0.063869622	0.004509946	0.057994742	0.059453474				0.12	-0.077545675	0.080138863	0.058548687	0.060021352		0.12	0.005018103	0.001595347	1.03822E-05	1.06434E-05
-7.32	-0.062961717	0.006757886	0.05799692	0.059455707				0.16	-0.07603581	0.080398039	0.058560472	0.060033434		0.16	0.006527968	0.001854523	2.21674E-05	2.2725E-05
-7.28	-0.061299913	0.008889086	0.057996177	0.059454945				0.2	-0.073626588	0.080518493	0.058560634	0.060033599		0.2	0.00893719	0.001974976	2.23292E-05	2.28908E-05
-7.24	-0.059936653	0.010850898	0.057998074	0.05945689				0.24	-0.071706494	0.080654592	0.058560486	0.060033449		0.24	0.010857284	0.002111076	2.2182E-05	2.27399E-05
-7.2	-0.058241894	0.012689228	0.05799892	0.059457757				0.28	-0.069750125	0.080619318	0.058560325	0.060033283		0.28	0.012813653	0.002075802	2.20207E-05	2.25746E-05
-7.16	-0.056275683	0.014332091	0.057999875	0.059458736				0.32	-0.067804682	0.080383416	0.058559977	0.060032926		0.32	0.014759096	0.0018399	2.16724E-05	2.22176E-05
-7.12	-0.05400695	0.01576323	0.05800092	0.059459807				0.36	-0.066144341	0.079930893	0.058559389	0.060032324		0.36	0.016419437	0.001387377	2.10846E-05	2.16149E-05
-7.08	-0.051369626	0.017039068	0.058001171	0.059460065				0.4	-0.063842714	0.079132289	0.058559702	0.060032644		0.4	0.018721064	0.000588772	2.1397E-05	2.19352E-05
-7.04	-0.048571058	0.018096198	0.058002807	0.059461742				0.44	-0.064305647	0.078138742	0.058557239	0.06003012		0.44	0.018258131	-0.000404774	1.89348E-05	1.94111E-05
-7	-0.046032924	0.018934654	0.05800353	0.059462483				0.48	-0.062738887	0.077116372	0.058557013	0.060029887		0.48	0.019824891	-0.001427144	1.87081E-05	1.91786E-05
-6.96	-0.04483543	0.019615306	0.05799551	0.059454261				0.52	-0.060909638	0.075663268	0.058557	0.060029875		0.52	0.02165414	-0.002880248	1.86959E-05	1.91662E-05
-6.92	-0.041387461	0.019941133	0.057995641	0.059454396				0.56	-0.059305427	0.073971794	0.058556957	0.06002983		0.56	0.023258351	-0.004571722	1.86524E-05	1.91216E-05
-6.88	-0.038361052	0.020211966	0.057996899	0.059455685				0.6	-0.057600843	0.072071818	0.058557257	0.060030138		0.6	0.024962935	-0.006471698	1.89527E-05	1.94294E-05
-6.84	-0.035288512	0.020227816	0.057997847	0.059456658				0.64	-0.056534477	0.070144222	0.058557263	0.060030144		0.64	0.026029301	-0.008399295	1.89586E-05	1.94354E-05
-6.8	-0.032318907	0.020017411	0.057999147	0.05945799				0.68	-0.057446446	0.068006733	0.058544763	0.06001733		0.68	0.025117332	-0.010536783	6.45845E-06	6.6209E-06
-6.76	-0.029358895	0.019605835	0.057999628	0.059458483				0.72	-0.058270547	0.065740817	0.058534289	0.060006592		0.72	0.024293231	-0.012802699	-4.01588E-06	-4.11689E-06
-6.72	-0.026435052	0.018981577	0.058000271	0.059459142				0.76	-0.057777017	0.063366727	0.058534291	0.060006594		0.76	0.024786761	-0.015176789	-4.01352E-06	-4.11448E-06
-6.68	-0.023445807	0.017886598	0.058001404	0.059460303				0.8	-0.057482618	0.06083924	0.058534363	0.060006668		0.8	0.02508116	-0.017704276	-3.94124E-06	-4.04038E-06
-6.64	-0.023703748	0.016512876	0.057965923	0.05942393				0.84	-0.057587327	0.058184893	0.058534479	0.060006786		0.84	0.024976451	-0.020358623	-3.82593E-06	-3.92216E-06
-6.6	-0.021521364	0.015142909	0.057966554	0.059424577				0.88	-0.057869249	0.055452116	0.058534624	0.060006935		0.88	0.024694528	-0.0230914	-3.68082E-06	-3.77341E-06
-6.56	-0.019410516	0.013526152	0.057966457	0.059424478				0.92	-0.058499389	0.052624477	0.05853449	0.060006798		0.92	0.024064389	-0.025919039	-3.81481E-06	-3.91076E-06
-6.52	-0.017702078	0.01164159	0.057966856	0.059424886				0.96	-0.060190567	0.049842525	0.058544896	0.060017466		0.96	0.022373211	-0.028700991	6.59148E-06	6.75727E-06
-6.48	-0.015845351	0.009466388	0.057968193	0.059426257				1	-0.062333581	0.046780173	0.058532676	0.060004938		1	0.020230197	-0.031763344	-5.62861E-06	-5.77019E-06
-6.44	-0.01415785	0.006964797	0.057970153	0.059428267				1.04	-0.062840354	0.043768803	0.058532862	0.060005129		1.04	0.019723424	-0.034774713	-5.44236E-06	-5.57925E-06
-6.4	-0.014263479	0.004136182	0.057963164	0.059421101				1.08	-0.065381141	0.040811948	0.058516847	0.059988711		1.08	0.017182637	-0.037731569	-2.1458E-05	-2.19977E-05
-6.36	-0.014488903	0.000895003	0.057953783	0.059411485				1.12	-0.066486203	0.038191114	0.058516665	0.059988525		1.12	0.016077575	-0.040352402	-2.16393E-05	-2.21836E-05
-6.32	-0.013479244	-0.002388169	0.057954784	0.059412511				1.16	-0.067482304	0.035536823	0.05851664	0.059988499		1.16	0.015081474	-0.043006693	-2.16643E-05	-2.22092E-05
-6.28	-0.012126184	-0.006150171	0.057955829	0.059413582				1.2	-0.068451319	0.033033462	0.058516608	0.059988467		1.2	0.014112459	-0.045510054	-2.16962E-05	-2.22419E-05
-6.24	-0.013169607	-0.010018865	0.057946061	0.059403568				1.24	-0.069715894	0.030859427	0.058516351	0.059988203		1.24	0.012847884	-0.04768409	-2.19536E-05	-2.25058E-05
-6.2	-0.012591506	-0.014082446	0.057947839	0.059405392				1.28	-0.07106359	0.028927718	0.058516243	0.059988092		1.28	0.011500188	-0.049615798	-2.20616E-05	-2.26165E-05
-6.16	-0.013651329	-0.018332697	0.057940864	0.059398241				1.32	-0.074024628	0.027220566	0.058502463	0.059973965		1.32	0.00853915	-0.05132295	-3.58419E-05	-3.67434E-05
-6.12	-0.01332939	-0.022674856	0.057941617	0.059399013				1.36	-0.075536892	0.025834874	0.058501998	0.059973489		1.36	0.007026886	-0.052708642	-3.63061E-05	-3.72193E-05
-6.08	-0.031479484	-0.01765861	0.058498747	0.059970157				1.4	-0.078167057	0.024533841	0.058487283	0.059958404		1.4	0.004396721	-0.054009675	-5.10212E-05	-5.23046E-05
-6.04	-0.031380309	-0.022021762	0.058499909	0.059971347				1.44	-0.079082684	0.023547835	0.058487271	0.059958392		1.44	0.003481094	-0.054995681	-5.10333E-05	-5.2317E-05
-6	-0.031681233	-0.026291171	0.058500743	0.059972202				1.48	-0.081157273	0.023089553	0.058497469	0.059968846		1.48	0.001406505	-0.055453963	-4.08354E-05	-4.18625E-05
-5.96	-0.031901955	-0.030795734	0.058501457	0.059972934				1.52	-0.082512497	0.022883194	0.058497425	0.0599688		1.52	5.12805E-05	-0.055660322	-4.088E-05	-4.19082E-05
-5.92	-0.032083085	-0.03504438	0.058501553	0.059973033				1.56	-0.086336498	0.023043427	0.05849236	0.059963608		1.56	-0.00377272	-0.055500089	-4.59446E-05	-4.71002E-05
-5.88	-0.032224856	-0.039210509	0.058502261	0.059973758				1.6	-0.087449453	0.02352019	0.058492339	0.059963587		1.6	-0.004885675	-0.055023327	-4.59651E-05	-4.71212E-05
-5.84	-0.03361694	-0.043225281	0.058497498	0.059968876				1.64	-0.088303138	0.02411102	0.058492495	0.059963747		1.64	-0.00573936	-0.054432496	-4.5809E-05	-4.69612E-05
-5.8	-0.033151183	-0.047194936	0.058499265	0.059970688				1.68	-0.08881344	0.024784186	0.058493361	0.059964634		1.68	-0.006249662	-0.05375933	-4.49439E-05	-4.60744E-05
-5.76	-0.032679734	-0.050686889	0.058500181	0.059971626				1.72	-0.090321951	0.026135931	0.058493449	0.059964725		1.72	-0.007758173	-0.052407586	-4.48554E-05	-4.59836E-05
-5.72	-0.032416126	-0.05382363	0.058501204	0.059972675				1.76	-0.091808996	0.027736519	0.058493644	0.059964925		1.76	-0.009245218	-0.050806997	-4.46602E-05	-4.57836E-05
-5.68	-0.031997902	-0.056514476	0.058501013	0.059972479				1.8	-0.093352314	0.029600615	0.058493656	0.059964937		1.8	-0.010788536	-0.048942901	-4.46488E-05	-4.57718E-05
-5.64	-0.031556897	-0.058756716	0.058502271	0.059973769				1.84	-0.096472969	0.031656298	0.058479838	0.059950772		1.84	-0.013909191	-0.046887218	-5.84662E-05	-5.99368E-05
-5.6	-0.030925053	-0.060498448	0.058503467	0.059974995				1.88	-0.097541361	0.033789488	0.058480119	0.059951059		1.88	-0.014977583	-0.044754029	-5.81857E-05	-5.96492E-05
-5.56	-0.030200409	-0.061712853	0.058504625	0.059976182				1.92	-0.099109531	0.036279373	0.058480143	0.059951084		1.92	-0.016545753	-0.042264144	-5.81615E-05	-5.96244E-05
-5.52	-0.029041123	-0.062537271	0.058506316	0.059977916				1.96	-0.102798595	0.039106323	0.058528961	0.06000113		1.96	-0.020234817	-0.039437194	-9.34327E-06	-9.57828E-06
-5.48	-0.028350999	-0.062616944	0.058506779	0.05997839				2	-0.104630906	0.041979757	0.058528889	0.060001056		2	-0.022067128	-0.036563759	-9.41589E-06	-9.65273E-06
-5.44	-0.027447782	-0.062150326	0.058507336	0.059978961				2.04	-0.106162864	0.044767701	0.058528717	0.06000088		2.04	-0.023599086	-0.033775815	-9.58764E-06	-9.8288E-06
-5.4	-0.026526653	-0.061209027	0.058507763	0.059979399				2.08	-0.111032564	0.047616309	0.058474503	0.059945302		2.08	-0.028468786	-0.030927208	-6.38019E-05	-6.54067E-05
-5.36	-0.025311653	-0.059836074	0.058508517	0.059980172				2.12	-0.113873274	0.050896364	0.05848861	0.059959765		2.12	-0.031309496	-0.027647152	-4.96942E-05	-5.09441E-05
-5.32	-0.02379358	-0.058105319	0.05850964	0.059981323				2.16	-0.11578699	0.054226973	0.058488357	0.059959505		2.16	-0.033223212	-0.024316543	-4.99476E-05	-5.12039E-05
-5.28	-0.024539425	-0.056452649	0.058472855	0.059943612				2.2	-0.117263291	0.057412944	0.058488289	0.059959435		2.2	-0.034699513	-0.021130572	-5.00155E-05	-5.12735E-05
-5.24	-0.024056024	-0.054143065	0.058465861	0.059936443				2.24	-0.118958458	0.060796555	0.058488096	0.059959237		2.24	-0.03639468	-0.017746961	-5.02083E-05	-5.14712E-05
-5.2	-0.021871439	-0.051629267	0.058466637	0.059937239				2.28	-0.123429068	0.063946756	0.058438221	0.059908107		2.28	-0.04086529	-0.01459676	-0.000100084	-0.000102601
-5.16	-0.019317783	-0.049140502	0.058467806	0.059938437				2.32	-0.124753822	0.067340125	0.058438151	0.059908036		2.32	-0.042190044	-0.011203391	-0.000100153	-0.000102673
-5.12	-0.01675092	-0.046695061	0.058468492	0.059939141				2.36	-0.126022858	0.070653176	0.058438299	0.059908187		2.36	-0.04345908	-0.00789034	-0.000100006	-0.000102521
-5.08	-0.013045391	-0.044764177	0.058469343	0.059940012				2.4	-0.127182879	0.073919172	0.058438369	0.05990826		2.4	-0.044619101	-0.004624344	-9.99353E-05	-0.000102449
-5.04	-0.009733802	-0.042719112	0.058469827	0.059940509				2.44	-0.129662413	0.077049889	0.058424807	0.059894357		2.44	-0.047098635	-0.001493627	-0.000113497	-0.000116352
-5	-0.006321088	-0.040996778	0.058470653	0.059941356				2.48	-0.13036783	0.080137914	0.058424512	0.059894054		2.48	-0.047804052	0.001594397	-0.000113793	-0.000116655
-4.96	-0.002578091	-0.039637331	0.058470913	0.059941622				2.52	-0.135781394	0.083170486	0.058422754	0.059892252		2.52	-0.053217616	0.00462697	-0.000115551	-0.000118457
-4.92	0.001916417	-0.038938235	0.058471785	0.059942516				2.56	-0.13579827	0.086110122	0.05842305	0.059892555		2.56	-0.053234492	0.007566605	-0.000115254	-0.000118153
-4.88	0.004711761	-0.038558675	0.058464334	0.059934878				2.6	-0.136449029	0.088970167	0.058435982	0.059905812		2.6	-0.053885251	0.010426651	-0.000102323	-0.000104897
-4.84	0.010043103	-0.039029242	0.058465601	0.059936177				2.64	-0.135982604	0.091630522	0.058435892	0.059905721		2.64	-0.053418826	0.013087006	-0.000102412	-0.000104988
-4.8	0.013295499	-0.039705796	0.058457668	0.059928044				2.68	-0.13516107	0.094122749	0.058435741	0.059905565		2.68	-0.052597292	0.015579232	-0.000102563	-0.000105143
-4.76	0.018333983	-0.040934817	0.058458217	0.059928607				2.72	-0.133718243	0.096430135	0.058435817	0.059905643		2.72	-0.051154465	0.017886619	-0.000102487	-0.000105065
-4.72	0.023782494	-0.042737008	0.05845861	0.059929009				2.76	-0.133345142	0.098481547	0.05848429	0.059955336		2.76	-0.050781364	0.01993803	-5.40143E-05	-5.53729E-05
-4.68	0.029511717	-0.045101187	0.058458732	0.059929134				2.8	-0.131092746	0.100434415	0.058484479	0.059955529		2.8	-0.048528968	0.021890899	-5.38255E-05	-5.51794E-05
-4.64	0.035598883	-0.048027026	0.058460621	0.059931071				2.84	-0.128082726	0.101987525	0.058484909	0.05995597		2.84	-0.045518948	0.023444009	-5.33959E-05	-5.47389E-05
-4.6	0.041536333	-0.051484449	0.058461058	0.05993152				2.88	-0.124937714	0.103477857	0.058485158	0.059956226		2.88	-0.042373936	0.024934341	-5.31461E-05	-5.44829E-05
-4.56	0.047383833	-0.055422996	0.058461651	0.059932127				2.92	-0.122562716	0.104497246	0.05847069	0.059941394		2.92	-0.039998938	0.02595373	-6.76142E-05	-6.93149E-05
-4.52	0.053408966	-0.059848108	0.058462298	0.05993279				2.96	-0.120101137	0.105663418	0.058523318	0.059995345		2.96	-0.037537359	0.027119902	-1.49866E-05	-1.53636E-05
-4.48	0.059685217	-0.06466013	0.058463093	0.059933606				3	-0.115068979	0.106461175	0.058523717	0.059995754		3	-0.032505201	0.027917659	-1.45878E-05	-1.49547E-05
-4.44	0.066283241	-0.070018658	0.058463546	0.05993407				3.04	-0.109510867	0.106983113	0.058523776	0.059995815		3.04	-0.026947089	0.028439597	-1.4528E-05	-1.48935E-05
-4.4	0.071113527	-0.075452544	0.058454154	0.059924441				3.08	-0.106739517	0.107189787	0.058472864	0.059943622		3.08	-0.024175739	0.02864627	-6.54406E-05	-6.70866E-05
-4.36	0.077409861	-0.080994531	0.058454602	0.059924901				3.12	-0.099562705	0.107027789	0.058473131	0.059943896		3.12	-0.016998927	0.028484272	-6.51738E-05	-6.68131E-05
-4.32	0.084037289	-0.086619327	0.058455566	0.059925889				3.16	-0.091782736	0.106576921	0.058473374	0.059944145		3.16	-0.009218958	0.028033405	-6.49307E-05	-6.65639E-05
-4.28	0.091138747	-0.092623895	0.058457249	0.059927614				3.2	-0.084819448	0.106114318	0.058486685	0.05995779		3.2	-0.00225567	0.027570802	-5.162E-05	-5.29184E-05
-4.24	0.097313339	-0.098121355	0.058457679	0.059928055				3.24	-0.076657601	0.105281876	0.058486665	0.05995777		3.24	0.005906177	0.02673836	-5.16396E-05	-5.29385E-05
-4.2	0.103813975	-0.103429439	0.058457626	0.059928001				3.28	-0.067863459	0.103976131	0.058486661	0.059957766		3.28	0.014700319	0.025432614	-5.16433E-05	-5.29423E-05
-4.16	0.109983274	-0.108429794	0.058457652	0.059928028				3.32	-0.059070125	0.102523488	0.058486556	0.059957658		3.32	0.023493653	0.023979972	-5.17487E-05	-5.30504E-05
-4.12	0.115588803	-0.113034132	0.05845854	0.059928938				3.36	-0.0497116	0.100760473	0.058486695	0.059957801		3.36	0.032852178	0.022216957	-5.16093E-05	-5.29074E-05
-4.08	0.12096487	-0.117140282	0.05845896	0.059929368				3.4	-0.040129926	0.098665397	0.058486795	0.059957904		3.4	0.042433852	0.020121881	-5.15091E-05	-5.28047E-05
-4.04	0.126329223	-0.120746436	0.058460279	0.059930721				3.44	-0.030334099	0.09625993	0.05848682	0.059957929		3.44	0.052229679	0.017716413	-5.14847E-05	-5.27797E-05
-4	0.130107264	-0.123636848	0.058468668	0.05993932				3.48	-0.022722619	0.093366709	0.058490987	0.059962201		3.48	0.059841159	0.014823192	-4.73172E-05	-4.85074E-05
-3.96	0.132088913	-0.125894411	0.058467538	0.059938162				3.52	-0.013092912	0.090316251	0.058491037	0.059962253		3.52	0.069470866	0.011772735	-4.72672E-05	-4.84561E-05
-3.92	0.135937651	-0.127449731	0.058467962	0.059938597				3.56	-0.004756681	0.086905522	0.058480314	0.059951259		3.56	0.077807097	0.008362006	-5.79909E-05	-5.94495E-05
-3.88	0.139713948	-0.128490173	0.05846846	0.059939108				3.6	0.005167121	0.08318755	0.058480586	0.059951538		3.6	0.087730899	0.004644034	-5.77184E-05	-5.91702E-05
-3.84	0.142482021	-0.128636575	0.058468491	0.059939139				3.64	0.014449132	0.079024238	0.058495121	0.059966439		3.64	0.09701291	0.000480722	-4.31832E-05	-4.42694E-05
-3.8	0.145391145	-0.128256576	0.058469082	0.059939745				3.68	0.024043823	0.074656231	0.058495564	0.059966893		3.68	0.106607601	-0.003887285	-4.27407E-05	-4.38158E-05
-3.76	0.145267911	-0.126947583	0.058467161	0.059937775				3.72	0.033101553	0.069827352	0.058508995	0.059980662		3.72	0.115665331	-0.008716165	-2.93091E-05	-3.00463E-05
-3.72	0.146422983	-0.124925085	0.058471543	0.059942268				3.76	0.041992235	0.064680409	0.058523164	0.059995187		3.76	0.124556013	-0.013863108	-1.51405E-05	-1.55213E-05
-3.68	0.146235769	-0.122324159	0.058462495	0.059932993				3.8	0.051402352	0.059353458	0.058523447	0.059995477		3.8	0.13396613	-0.019190058	-1.48577E-05	-1.52314E-05
-3.64	0.147159273	-0.119155445	0.058462854	0.059933361				3.84	0.060570307	0.053749499	0.058523688	0.059995725		3.84	0.143134085	-0.024794017	-1.46161E-05	-1.49837E-05
-3.6	0.14785487	-0.115467281	0.058463023	0.059933534				3.88	0.069481566	0.047865036	0.058523895	0.059995936		3.88	0.152045344	-0.03067848	-1.44099E-05	-1.47724E-05
-3.56	0.148168873	-0.111348686	0.058462954	0.059933463				3.92	0.078768554	0.04153011	0.058524294	0.059996346		3.92	0.161332332	-0.037013406	-1.40101E-05	-1.43625E-05
-3.52	0.147514841	-0.106797695	0.058467956	0.05993859				3.96	0.086285365	0.035216183	0.058540234	0.060012687		3.96	0.168849143	-0.043327333	1.92954E-06	1.97807E-06
-3.48	0.147160536	-0.102023514	0.058468749	0.059939404				4	0.094754678	0.028652327	0.058540386	0.060012843		4	0.177318456	-0.049891189	2.08192E-06	2.13429E-06
-3.44	0.14624119	-0.097049776	0.058469004	0.059939665				4.04	0.10227236	0.021762394	0.058552795	0.060025563		4.04	0.184836138	-0.056781122	1.44904E-05	1.48549E-05
-3.4	0.145169086	-0.091955833	0.058469473	0.059940146				4.08	0.108862803	0.014698848	0.058541898	0.060014393		4.08	0.191426581	-0.063844669	3.59375E-06	3.68414E-06
-3.36	0.143791976	-0.086820789	0.058469631	0.059940308				4.12	0.11632232	0.007759297	0.058542032	0.06001453		4.12	0.198886098	-0.070784219	3.72785E-06	3.82161E-06
-3.32	0.142098584	-0.08171	0.058470129	0.059940819				4.16	0.123530203	0.000756756	0.058541877	0.060014371		4.16	0.206093981	-0.07778676	3.57274E-06	3.66261E-06
-3.28	0.14032245	-0.076908371	0.058470599	0.0599413				4.2	0.130440971	-0.00628597	0.058541816	0.060014308		4.2	0.213004749	-0.084829486	3.51131E-06	3.59963E-06
-3.24	0.138104209	-0.072102751	0.058471131	0.059941846				4.24	0.137100738	-0.013298195	0.058541773	0.060014264		4.24	0.219664516	-0.091841711	3.46833E-06	3.55557E-06
-3.2	0.135506496	-0.067541625	0.058471294	0.059942013				4.28	0.143436442	-0.020241429	0.058541771	0.060014263		4.28	0.22600022	-0.098784945	3.46694E-06	3.55414E-06
-3.16	0.133008286	-0.063274679	0.058472018	0.059942754				4.32	0.148528952	-0.026978344	0.058552018	0.060024767		4.32	0.23109273	-0.105521861	1.37139E-05	1.40588E-05
-3.12	0.129956435	-0.059311664	0.058472441	0.059943188				4.36	0.153222784	-0.033722751	0.058564477	0.060037539		4.36	0.235786562	-0.112266268	2.6172E-05	2.68303E-05
-3.08	0.126743624	-0.055707521	0.058472669	0.059943422				4.4	0.158189879	-0.040114077	0.058564482	0.060037544		4.4	0.240753657	-0.118657594	2.61772E-05	2.68356E-05
-3.04	0.123291781	-0.052476504	0.0584736	0.059944377				4.44	0.162831033	-0.046239986	0.058564481	0.060037544		4.44	0.245394811	-0.124783502	2.61769E-05	2.68354E-05
-3	0.119327193	-0.049663999	0.058473641	0.059944418				4.48	0.166782736	-0.052008275	0.05856486	0.060037932		4.48	0.249346514	-0.130551791	2.65555E-05	2.72234E-05
-2.96	0.115262559	-0.047216614	0.058473708	0.059944488				4.52	0.170499126	-0.057436138	0.058565157	0.060038236		4.52	0.253062904	-0.135979654	2.68523E-05	2.75277E-05
-2.92	0.110399616	-0.04512698	0.058480618	0.059951572				4.56	0.173709285	-0.06244361	0.058565406	0.060038492		4.56	0.256273063	-0.140987126	2.71018E-05	2.77835E-05
-2.88	0.103371107	-0.043392595	0.058478163	0.059949054				4.6	0.174058419	-0.066974606	0.058567655	0.060040797		4.6	0.256622197	-0.145518122	2.93502E-05	3.00885E-05
-2.84	0.096281459	-0.041984791	0.058472303	0.059943047				4.64	0.176510294	-0.070977877	0.0585676	0.060040741		4.64	0.259074072	-0.149521393	2.92958E-05	3.00327E-05
-2.8	0.090130065	-0.040896449	0.058461311	0.059931779				4.68	0.178293274	-0.074448694	0.058568206	0.060041363		4.68	0.260857052	-0.15299221	2.9902E-05	3.06541E-05
-2.76	0.08499821	-0.040192811	0.058468419	0.059939065				4.72	0.180062411	-0.077370412	0.058568579	0.060041744		4.72	0.262626189	-0.155913928	3.02742E-05	3.10357E-05
-2.72	0.080378405	-0.039597037	0.058468416	0.059939062				4.76	0.181385409	-0.07974438	0.058568753	0.060041923		4.76	0.263949187	-0.158287896	3.04488E-05	3.12147E-05
-2.68	0.075924787	-0.039257922	0.058468915	0.059939574				4.8	0.182363059	-0.081543574	0.058568935	0.06004211		4.8	0.264926837	-0.16008709	3.06309E-05	3.14014E-05
-2.64	0.071489219	-0.039120343	0.058469445	0.059940117				4.84	0.183139995	-0.082775346	0.058568956	0.060042131		4.84	0.265703773	-0.161318862	3.06518E-05	3.14228E-05
-2.6	0.066896159	-0.039156262	0.058469647	0.059940324				4.88	0.182341383	-0.083644967	0.058557004	0.060029879		4.88	0.264905161	-0.162188483	1.86996E-05	1.91699E-05
-2.56	0.060864664	-0.039311041	0.058459041	0.059929451				4.92	0.181006372	-0.083739041	0.058546408	0.060019016		4.92	0.26357015	-0.162282557	8.10386E-06	8.30769E-06
-2.52	0.056629175	-0.039542436	0.05845956	0.059929983				4.96	0.181153903	-0.083267374	0.058546467	0.060019077		4.96	0.26371768	-0.16181089	8.16263E-06	8.36794E-06
-2.48	0.052858101	-0.04002314	0.058459693	0.05993012				5	0.180952264	-0.082314946	0.058546459	0.060019068		5	0.263516042	-0.160858462	8.1545E-06	8.35961E-06
-2.44	0.04757109	-0.040631629	0.058449481	0.059919651				5.04	0.178776616	-0.080930056	0.058532867	0.060005135		5.04	0.261340394	-0.159473572	-5.43711E-06	-5.57386E-06
-2.4	0.043312817	-0.041011816	0.058449364	0.059919531				5.08	0.178019071	-0.079074384	0.058533001	0.060005272		5.08	0.260582849	-0.1576179	-5.30365E-06	-5.43706E-06
-2.36	0.039348472	-0.041418924	0.058449427	0.059919595				5.12	0.177168756	-0.076861514	0.058533063	0.060005336		5.12	0.259732534	-0.15540503	-5.24127E-06	-5.3731E-06
-2.32	0.036100577	-0.042019594	0.058449936	0.059920117				5.16	0.17545961	-0.074315361	0.058545876	0.060018471		5.16	0.258023388	-0.152858878	7.57161E-06	7.76205E-06
-2.28	0.032617217	-0.042414063	0.058450199	0.059920387				5.2	0.173084758	-0.071603675	0.058535768	0.060008109		5.2	0.255648536	-0.150147192	-2.53609E-06	-2.59988E-06
-2.24	0.02837817	-0.042703436	0.058457654	0.059928029				5.24	0.170435028	-0.068688157	0.058523262	0.059995287		5.24	0.252998806	-0.147231673	-1.50428E-05	-1.54212E-05
-2.2	0.023576604	-0.04302806	0.058446752	0.059916853				5.28	0.169294826	-0.065572519	0.05852324	0.059995265		5.28	0.251858604	-0.144116035	-1.50643E-05	-1.54432E-05
-2.16	0.019266435	-0.043402204	0.058436648	0.059906495				5.32	0.166610251	-0.062420619	0.058513713	0.059985499		5.32	0.249174029	-0.140964135	-2.45915E-05	-2.52101E-05
-2.12	0.016744584	-0.043651701	0.058437002	0.059906858				5.36	0.165403671	-0.059236717	0.058513673	0.059985458		5.36	0.247967449	-0.137780233	-2.46314E-05	-2.5251E-05
-2.08	0.014154183	-0.043583207	0.058437072	0.05990693				5.4	0.16475284	-0.056313051	0.058513915	0.059985706		5.4	0.247316618	-0.134856568	-2.43894E-05	-2.50028E-05
-2.04	0.011133858	-0.04352573	0.058446003	0.059916085				5.44	0.163536959	-0.053354996	0.058513905	0.059985695		5.44	0.246100737	-0.131898513	-2.43995E-05	-2.50132E-05
-2	0.008719504	-0.043193682	0.058446059	0.059916143				5.48	0.160882193	-0.050777487	0.058501594	0.059973075		5.48	0.243445971	-0.129321004	-3.67107E-05	-3.76341E-05
-1.96	0.005011036	-0.042684089	0.058436135	0.059905969				5.52	0.159725733	-0.048195463	0.058501596	0.059973077		5.52	0.242289511	-0.126738979	-3.67084E-05	-3.76317E-05
-1.92	0.003057486	-0.041911184	0.058436075	0.059905908				5.56	0.158364836	-0.045852807	0.058501918	0.059973407		5.56	0.240928614	-0.124396323	-3.63868E-05	-3.73021E-05
-1.88	0.000438664	-0.041039634	0.058445742	0.059915818				5.6	0.157192348	-0.043826507	0.058501843	0.059973331		5.6	0.239756126	-0.122370023	-3.6461E-05	-3.73781E-05
-1.84	-0.002586283	-0.039713863	0.058457282	0.059927648				5.64	0.155754135	-0.042177984	0.058502006	0.059973497		5.64	0.238317913	-0.120721501	-3.62983E-05	-3.72113E-05
-1.8	-0.004560175	-0.038202677	0.058457277	0.059927643				5.68	0.152464557	-0.040867242	0.05848887	0.059960031		5.68	0.235028335	-0.119410759	-4.94343E-05	-5.06778E-05
-1.76	-0.006328582	-0.036415344	0.058457348	0.059927715				5.72	0.151066417	-0.0398645	0.058488896	0.059960057		5.72	0.233630195	-0.118408017	-4.94086E-05	-5.06514E-05
-1.72	-0.009273511	-0.034255708	0.058466179	0.059936769				5.76	0.149408732	-0.039225543	0.058489083	0.059960249		5.76	0.231972509	-0.117769059	-4.92212E-05	-5.04592E-05
-1.68	-0.010844583	-0.032023753	0.058466359	0.059936954				5.8	0.14613987	-0.038954216	0.058478638	0.059949541		5.8	0.228703648	-0.117497732	-5.96666E-05	-6.11674E-05
-1.64	-0.013481656	-0.029251109	0.058473212	0.059943979				5.84	0.14280781	-0.038970561	0.05846708	0.059937693		5.84	0.225371588	-0.117514077	-7.1224E-05	-7.30155E-05
-1.6	-0.015429116	-0.026186936	0.058473233	0.059944001				5.88	0.141753241	-0.039635617	0.058468035	0.059938672		5.88	0.224317019	-0.118179133	-7.02693E-05	-7.20368E-05
-1.56	-0.016837647	-0.023027109	0.058473541	0.059944316				5.92	0.139893881	-0.040223556	0.058468038	0.059938675		5.92	0.222457659	-0.118767072	-7.02666E-05	-7.2034E-05
-1.52	-0.018559542	-0.019585073	0.058473528	0.059944303				5.96	0.137860942	-0.041054129	0.058468152	0.059938792		5.96	0.22042472	-0.119597646	-7.01523E-05	-7.19169E-05
-1.48	-0.020709193	-0.015660391	0.058473355	0.059944126				6	0.135806589	-0.042130468	0.058468192	0.059938832		6	0.218370367	-0.120673984	-7.01127E-05	-7.18762E-05
-1.44	-0.02256498	-0.011459272	0.058473361	0.059944131				6.04	0.132351285	-0.043642054	0.058456153	0.059926491		6.04	0.214915063	-0.122185571	-8.21514E-05	-8.42177E-05
-1.4	-0.024615541	-0.007011581	0.058473323	0.059944093				6.08	0.130082847	-0.045063149	0.058456196	0.059926534		6.08	0.212646625	-0.123606666	-8.21089E-05	-8.41741E-05
-1.36	-0.026682119	-0.002375624	0.058473292	0.059944061				6.12	0.126326015	-0.046652505	0.058447707	0.059917832		6.12	0.208889793	-0.125196022	-9.05975E-05	-9.28762E-05
-1.32	-0.02856707	0.002198499	0.058473686	0.059944465				6.16	0.123950522	-0.048271856	0.058447628	0.059917752		6.16	0.2065143	-0.126815372	-9.06763E-05	-9.2957E-05
-1.28	-0.034077238	0.007052866	0.058429995	0.059899674				6.2	0.119724017	-0.050001811	0.058437149	0.059907008		6.2	0.202287795	-0.128545327	-0.000101156	-0.0001037
-1.24	-0.036121281	0.011924272	0.058430219	0.059899904				6.24	0.117086263	-0.051746834	0.05843716	0.05990702		6.24	0.199650041	-0.13029035	-0.000101145	-0.000103689
-1.2	-0.038551234	0.017005167	0.0584302	0.059899885				6.28	0.114405324	-0.053545767	0.058437162	0.059907022		6.28	0.196969102	-0.132089283	-0.000101142	-0.000103686
-1.16	-0.04171544	0.021911849	0.058440837	0.05991079				6.32	0.109964762	-0.055260192	0.058479571	0.059950498		6.32	0.19252854	-0.133803708	-5.87337E-05	-6.0211E-05
-1.12	-0.044252422	0.026894105	0.058440941	0.059910896				6.36	0.107339219	-0.057097117	0.058479512	0.059950437		6.36	0.189902997	-0.135640633	-5.87925E-05	-6.02713E-05
-1.08	-0.047660337	0.031827851	0.058448894	0.05991905				6.4	0.104638008	-0.058900482	0.058479529	0.059950454		6.4	0.187201786	-0.137443999	-5.87758E-05	-6.02542E-05
-1.04	-0.05030177	0.036569213	0.058448842	0.059918996				6.44	0.102501903	-0.061062724	0.058480218	0.059951161		6.44	0.185065681	-0.13960624	-5.80869E-05	-5.95479E-05
-1	-0.0539648	0.041195772	0.058460379	0.059930823				6.48	0.09984226	-0.062849431	0.058480222	0.059951165		6.48	0.182406038	-0.141392947	-5.80828E-05	-5.95438E-05
-0.96	-0.056674038	0.045534662	0.058460334	0.059930777				6.52	0.097302686	-0.064799757	0.058480588	0.05995154		6.52	0.179866464	-0.143343273	-5.77164E-05	-5.91682E-05
-0.92	-0.05956975	0.04958829	0.058460254	0.059930695				6.56	0.094529149	-0.06650891	0.05848092	0.059951881		6.56	0.177092927	-0.145052427	-5.73845E-05	-5.88279E-05
-0.88	-0.062312873	0.053368029	0.058460258	0.059930699				6.6	0.091957367	-0.068187262	0.058480905	0.059951866		6.6	0.174521145	-0.146730778	-5.73993E-05	-5.8843E-05
-0.84	-0.065155084	0.056824435	0.058460118	0.059930555				6.64	0.089241501	-0.069799864	0.058480901	0.059951861		6.64	0.171805279	-0.14834338	-5.74034E-05	-5.88473E-05
-0.8	-0.068686743	0.060032913	0.058471016	0.059941727				6.68	0.086090829	-0.071719522	0.058474164	0.059944955		6.68	0.168654607	-0.150263039	-6.41404E-05	-6.57537E-05
-0.76	-0.072283628	0.062909649	0.058480859	0.059951818				6.72	0.083794904	-0.073165	0.058474265	0.059945059		6.72	0.166358682	-0.151708516	-6.4039E-05	-6.56498E-05
-0.72	-0.074911195	0.065428918	0.058480697	0.059951652				6.76	0.080002445	-0.074549421	0.058465002	0.059935563		6.76	0.162566223	-0.153092937	-7.33023E-05	-7.5146E-05
-0.68	-0.076788447	0.067410641	0.058480946	0.059951907				6.8	0.078033495	-0.0757111	0.058464934	0.059935493		6.8	0.160597273	-0.154254616	-7.337E-05	-7.52155E-05
-0.64	-0.080040773	0.069330908	0.058493522	0.0599648				6.84	0.076072011	-0.076744052	0.058464969	0.059935528		6.84	0.158635789	-0.155287569	-7.33355E-05	-7.51801E-05
-0.6	-0.081695483	0.070702072	0.05849365	0.059964931				6.88	0.073183623	-0.077997609	0.058453522	0.059923794		6.88	0.155747401	-0.156541125	-8.47823E-05	-8.69148E-05
-0.56	-0.083207897	0.071987313	0.058493769	0.059965053				6.92	0.069946119	-0.078697547	0.05844353	0.05991355		6.92	0.152509897	-0.157241064	-9.47747E-05	-9.71586E-05
-0.52	-0.084663953	0.07298349	0.058493498	0.059964776				6.96	0.068532505	-0.079117715	0.058443563	0.059913584		6.96	0.151096283	-0.157661232	-9.47412E-05	-9.71242E-05
-0.48	-0.085256439	0.073601715	0.058493788	0.059965072				7	0.066377391	-0.079211248	0.058453225	0.059923489		7	0.148941169	-0.157754764	-8.50795E-05	-8.72195E-05
-0.44	-0.086736259	0.074093426	0.058505968	0.059977558				7.04	0.064819355	-0.079064069	0.058453225	0.059923489		7.04	0.147383133	-0.157607585	-8.50797E-05	-8.72197E-05
-0.4	-0.087244383	0.07461689	0.058505976	0.059977567				7.08	0.061764091	-0.078657804	0.058444065	0.059914099		7.08	0.144327869	-0.157201321	-9.42394E-05	-9.66098E-05
-0.36	-0.087285419	0.075059046	0.058505921	0.05997751				7.12	0.060830795	-0.078086735	0.058444008	0.05991404		7.12	0.143394573	-0.156630251	-9.42966E-05	-9.66684E-05
-0.32	-0.08722982	0.075424691	0.058505951	0.059977541				7.16	0.0594115	-0.077037328	0.058443928	0.059913958		7.16	0.141975278	-0.155580844	-9.43768E-05	-9.67506E-05
-0.28	-0.087494465	0.075627866	0.058515508	0.059987339				7.2	0.056990264	-0.075603531	0.058453975	0.059924258		7.2	0.139554042	-0.154147047	-8.43291E-05	-8.64502E-05
-0.24	-0.08691112	0.075972897	0.05851553	0.059987361				7.24	0.054636549	-0.073808004	0.058464588	0.059935138		7.24	0.137200327	-0.15235152	-7.37167E-05	-7.55709E-05
-0.2	-0.087008709	0.076421411	0.058527847	0.059999988				7.28	0.05152929	-0.07176116	0.058456236	0.059926576		7.28	0.134093068	-0.150304677	-8.20682E-05	-8.41325E-05
-0.16	-0.086664805	0.076907788	0.058537338	0.060009718				7.32	0.05001582	-0.069344592	0.058456058	0.059926393		7.32	0.132579598	-0.147888108	-8.22464E-05	-8.43151E-05
-0.12	-0.087157987	0.077380611	0.058524155	0.059996203				7.36	0.048528529	-0.066619669	0.05845572	0.059926047		7.36	0.131092307	-0.145163185	-8.25845E-05	-8.46618E-05
-0.08	-0.085089178	0.077541751	0.058525152	0.059997225				7.4	0.047180963	-0.063778521	0.058455787	0.059926116		7.4	0.129744741	-0.142322037	-8.25173E-05	-8.45929E-05
-0.04	-0.083317392	0.077914343	0.058525295	0.059997372				7.44	0.045144609	-0.060439808	0.058455949	0.059926281		7.44	0.127708387	-0.138983324	-8.23557E-05	-8.44272E-05
0	-0.082563778	0.078543516	0.058538305	0.060010709				7.48	0.04252143	-0.056780234	0.05846621	0.059936801		7.48	0.125085208	-0.135323751	-7.2094E-05	-7.39074E-05
0.04	-0.080670969	0.079112902	0.058538316	0.06001072				7.52	0.040779283	-0.05293182	0.058466251	0.059936843		7.52	0.123343061	-0.131475336	-7.20536E-05	-7.3866E-05
0.08	-0.078635401	0.079618739	0.05853829	0.060010694				7.56	0.039572401	-0.049059187	0.058466009	0.059936595		7.56	0.122136179	-0.127602704	-7.22952E-05	-7.41136E-05
0.12	-0.077545675	0.080138863	0.058548687	0.060021352				7.6	0.037057173	-0.044721824	0.05847646	0.059947308		7.6	0.119620951	-0.12326534	-6.18446E-05	-6.34002E-05
0.16	-0.07603581	0.080398039	0.058560472	0.060033434				7.64	0.035745442	-0.040411313	0.058476419	0.059947266		7.64	0.11830922	-0.118954829	-6.18858E-05	-6.34424E-05
0.2	-0.073626588	0.080518493	0.058560634	0.060033599				7.68	0.015356252	-0.026097042	0.059049009	0.060534258		7.68	0.09792003	-0.104640558	0.000510704	0.00052355
0.24	-0.071706494	0.080654592	0.058560486	0.060033449				7.72	0.013447706	-0.020886933	0.059048547	0.060533785		7.72	0.096011484	-0.09943045	0.000510242	0.000523076
0.28	-0.069750125	0.080619318	0.058560325	0.060033283				7.76	0.011358119	-0.015613616	0.05904856	0.060533798		7.76	0.093921897	-0.094157133	0.000510255	0.00052309
0.32	-0.067804682	0.080383416	0.058559977	0.060032926				7.8	0.008059056	-0.010317282	0.059041076	0.060526126		7.8	0.090622834	-0.088860798	0.000502771	0.000515417
0.36	-0.066144341	0.079930893	0.058559389	0.060032324				7.84	0.005573829	-0.004843984	0.059052023	0.060537349		7.84	0.088137607	-0.083387501	0.000513719	0.00052664
0.4	-0.063842714	0.079132289	0.058559702	0.060032644				7.88	0.001965714	0.000466387	0.059057241	0.060542698		7.88	0.084529492	-0.078077129	0.000518937	0.000531989
0.44	-0.064305647	0.078138742	0.058557239	0.06003012				7.92	-0.001972759	0.006040307	0.059058918	0.060544417		7.92	0.080591019	-0.072503209	0.000520614	0.000533709
0.48	-0.062738887	0.077116372	0.058557013	0.060029887				7.96	-0.004015885	0.011355405	0.059051479	0.060536791		7.96	0.078547893	-0.067188112	0.000513174	0.000526082
0.52	-0.060909638	0.075663268	0.058557	0.060029875				8	-0.004792862	0.016860557	0.059051409	0.060536719		8	0.077770916	-0.061682959	0.000513104	0.00052601
0.56	-0.059305427	0.073971794	0.058556957	0.06002983				8.04	-0.005562446	0.022329865	0.059051385	0.060536695		8.04	0.077001332	-0.056213651	0.000513081	0.000525986
0.6	-0.057600843	0.072071818	0.058557257	0.060030138				8.08	-0.005820767	0.027749677	0.05905048	0.060535766		8.08	0.076743011	-0.050793839	0.000512175	0.000525058
0.64	-0.056534477	0.070144222	0.058557263	0.060030144				8.12	-0.00620864	0.033082769	0.05905028	0.060535562		8.12	0.076355138	-0.045460747	0.000511976	0.000524853
0.68	-0.057446446	0.068006733	0.058544763	0.06001733				8.16	-0.006562592	0.038296083	0.059049881	0.060535152		8.16	0.076001186	-0.040247434	0.000511576	0.000524444
0.72	-0.058270547	0.065740817	0.058534289	0.060006592				8.2	-0.006667491	0.0433692	0.059049149	0.060534402		8.2	0.075896287	-0.035174316	0.000510844	0.000523693
0.76	-0.057777017	0.063366727	0.058534291	0.060006594				8.24	-0.006877023	0.048131733	0.059049088	0.06053434		8.24	0.075686755	-0.030411783	0.000510783	0.000523631
0.8	-0.057482618	0.06083924	0.058534363	0.060006668				8.28	-0.006957911	0.052731555	0.059048672	0.060533913		8.28	0.075605867	-0.025811961	0.000510367	0.000523204
0.84	-0.057587327	0.058184893	0.058534479	0.060006786				8.32	-0.007746429	0.057391064	0.059048465	0.060533702		8.32	0.074817349	-0.021152453	0.000510161	0.000522993
0.88	-0.057869249	0.055452116	0.058534624	0.060006935				8.36	-0.008490164	0.061830853	0.059048091	0.060533318		8.36	0.074073614	-0.016712663	0.000509787	0.000522609
0.92	-0.058499389	0.052624477	0.05853449	0.060006798				8.4	-0.009455229	0.066047929	0.059047991	0.060533215		8.4	0.073108549	-0.012495588	0.000509686	0.000522506
0.96	-0.060190567	0.049842525	0.058544896	0.060017466				8.44	-0.01048428	0.07004905	0.059047608	0.060532823		8.44	0.072079498	-0.008494466	0.000509303	0.000522114
1	-0.062333581	0.046780173	0.058532676	0.060004938				8.48	-0.011852297	0.073845818	0.059047373	0.060532582		8.48	0.070711481	-0.004697698	0.000509069	0.000521873
1.04	-0.062840354	0.043768803	0.058532862	0.060005129				8.52	-0.012874134	0.077207715	0.059046786	0.06053198		8.52	0.069689644	-0.001335801	0.000508482	0.000521272
1.08	-0.065381141	0.040811948	0.058516847	0.059988711				8.56	-0.015961093	0.080462107	0.05904131	0.060526366		8.56	0.066602685	0.001918591	0.000503005	0.000515657
1.12	-0.066486203	0.038191114	0.058516665	0.059988525				8.6	-0.017966651	0.083404529	0.059041375	0.060526433		8.6	0.064597127	0.004861013	0.000503071	0.000515724
1.16	-0.067482304	0.035536823	0.05851664	0.059988499				8.64	-0.020111199	0.086043657	0.059041213	0.060526266		8.64	0.062452579	0.00750014	0.000502908	0.000515558
1.2	-0.068451319	0.033033462	0.058516608	0.059988467				8.68	-0.02254165	0.088352579	0.059040883	0.060525928		8.68	0.060022128	0.009809062	0.000502578	0.00051522
1.24	-0.069715894	0.030859427	0.058516351	0.059988203				8.72	-0.025976203	0.090329567	0.059049933	0.060535206		8.72	0.056587575	0.011786051	0.000511629	0.000524497
1.28	-0.07106359	0.028927718	0.058516243	0.059988092				8.76	-0.030165452	0.091882634	0.059045094	0.060530246		8.76	0.052398326	0.013339118	0.00050679	0.000519537
1.32	-0.074024628	0.027220566	0.058502463	0.059973965				8.8	-0.035665508	0.093138961	0.059046517	0.060531704		8.8	0.04689827	0.014595445	0.000508213	0.000520996
1.36	-0.075536892	0.025834874	0.058501998	0.059973489				8.84	-0.038947291	0.093977833	0.059046165	0.060531344		8.84	0.043616487	0.015434316	0.000507861	0.000520635
1.4	-0.078167057	0.024533841	0.058487283	0.059958404				8.88	-0.042644253	0.094425618	0.059046172	0.060531351		8.88	0.039919525	0.015882102	0.000507868	0.000520642
1.44	-0.079082684	0.023547835	0.058487271	0.059958392				8.92	-0.046356917	0.094461646	0.059045899	0.060531071		8.92	0.036206861	0.015918129	0.000507595	0.000520362
1.48	-0.081157273	0.023089553	0.058497469	0.059968846				8.96	-0.050191006	0.094093019	0.059045499	0.060530661		8.96	0.032372772	0.015549503	0.000507195	0.000519952
1.52	-0.082512497	0.022883194	0.058497425	0.0599688				9	-0.056542077	0.093329303	0.059046083	0.060531259		9	0.026021701	0.014785787	0.000507778	0.00052055
1.56	-0.086336498	0.023043427	0.05849236	0.059963608				9.04	-0.0623538	0.092167448	0.059036579	0.060521517		9.04	0.020209978	0.013623932	0.000498275	0.000510808
1.6	-0.087449453	0.02352019	0.058492339	0.059963587				9.08	-0.06576421	0.090505248	0.059035368	0.060520275		9.08	0.016799568	0.011961732	0.000497064	0.000509566
1.64	-0.088303138	0.02411102	0.058492495	0.059963747				9.12	-0.069992862	0.088675893	0.059034956	0.060519853		9.12	0.012570916	0.010132377	0.000496652	0.000509144
1.68	-0.08881344	0.024784186	0.058493361	0.059964634				9.16	-0.074235255	0.086511669	0.059034076	0.06051895		9.16	0.008328523	0.007968152	0.000495771	0.000508241
1.72	-0.090321951	0.026135931	0.058493449	0.059964725				9.2	-0.078519979	0.08403176	0.059034059	0.060518932		9.2	0.004043799	0.005488244	0.000495754	0.000508224
1.76	-0.091808996	0.027736519	0.058493644	0.059964925				9.24	-0.082661402	0.081210771	0.059034175	0.060519052		9.24	-9.76241E-05	0.002667255	0.000495871	0.000508343
1.8	-0.093352314	0.029600615	0.058493656	0.059964937				9.28	-0.08703532	0.078149691	0.059033769	0.060518636		9.28	-0.004471542	-0.000393825	0.000495465	0.000507927
1.84	-0.096472969	0.031656298	0.058479838	0.059950772				9.32	-0.091203465	0.074845079	0.059032961	0.060517807		9.32	-0.008639688	-0.003698438	0.000494657	0.000507099
1.88	-0.097541361	0.033789488	0.058480119	0.059951059				9.36	-0.095100795	0.071336437	0.059031981	0.060516802		9.36	-0.012537017	-0.007207079	0.000493676	0.000506094
1.92	-0.099109531	0.036279373	0.058480143	0.059951084				9.4	-0.099222057	0.067680291	0.059031647	0.060516461		9.4	-0.016658279	-0.010863225	0.000493343	0.000505752
1.96	-0.102798595	0.039106323	0.058528961	0.06000113				9.44	-0.103980603	0.063978807	0.059041167	0.06052622		9.44	-0.021416825	-0.014564709	0.000502863	0.000515511
2	-0.104630906	0.041979757	0.058528889	0.060001056				9.48	-0.107760879	0.060149486	0.05904098	0.060526028		9.48	-0.025197101	-0.018394031	0.000502675	0.000515319
2.04	-0.106162864	0.044767701	0.058528717	0.06000088				9.52	-0.111106932	0.056347475	0.059040187	0.060525215		9.52	-0.028543154	-0.022196041	0.000501883	0.000514507
2.08	-0.111032564	0.047616309	0.058474503	0.059945302				9.56	-0.114262886	0.052538457	0.059039641	0.060524655		9.56	-0.031699108	-0.026005059	0.000501336	0.000513946
2.12	-0.113873274	0.050896364	0.05848861	0.059959765				9.6	-0.117119115	0.048816664	0.059039047	0.060524046		9.6	-0.034555337	-0.029726852	0.000500743	0.000513338
2.16	-0.11578699	0.054226973	0.058488357	0.059959505				9.64	-0.119677695	0.045246389	0.059038719	0.06052371		9.64	-0.037113917	-0.033297128	0.000500415	0.000513002
2.2	-0.117263291	0.057412944	0.058488289	0.059959435				9.68	-0.121441087	0.04183316	0.059036775	0.060521717		9.68	-0.038877309	-0.036710356	0.000498471	0.000511009
2.24	-0.118958458	0.060796555	0.058488096	0.059959237				9.72	-0.123211626	0.038571009	0.059036618	0.060521556		9.72	-0.040647848	-0.039972507	0.000498313	0.000510847
2.28	-0.123429068	0.063946756	0.058438221	0.059908107				9.76	-0.124745783	0.035568291	0.059036287	0.060521217		9.76	-0.042182005	-0.042975225	0.000497982	0.000510508
2.32	-0.124753822	0.067340125	0.058438151	0.059908036				9.8	-0.125979903	0.032778834	0.059035753	0.060520669		9.8	-0.043416125	-0.045764682	0.000497448	0.00050996
2.36	-0.126022858	0.070653176	0.058438299	0.059908187				9.84	-0.127758696	0.030298912	0.05904366	0.060528775		9.84	-0.045194918	-0.048244605	0.000505355	0.000518066
2.4	-0.127182879	0.073919172	0.058438369	0.05990826				9.88	-0.128156188	0.02801265	0.05904317	0.060528273		9.88	-0.04559241	-0.050530866	0.000504865	0.000517564
2.44	-0.129662413	0.077049889	0.058424807	0.059894357				9.92	-0.129060071	0.026083625	0.059050611	0.060535901		9.92	-0.046496294	-0.052459892	0.000512307	0.000525193
2.48	-0.13036783	0.080137914	0.058424512	0.059894054				9.96	-0.128638839	0.02435073	0.059049912	0.060535185		9.96	-0.046075061	-0.054192786	0.000511608	0.000524476
2.52	-0.135781394	0.083170486	0.058422754	0.059892252				10	-0.127980041	0.0228913	0.059049713	0.060534981		10	-0.045416263	-0.055652216	0.000511409	0.000524272
2.56	-0.13579827	0.086110122	0.05842305	0.059892555														
2.6	-0.136449029	0.088970167	0.058435982	0.059905812														
2.64	-0.135982604	0.091630522	0.058435892	0.059905721														
2.68	-0.13516107	0.094122749	0.058435741	0.059905565														
2.72	-0.133718243	0.096430135	0.058435817	0.059905643														
2.76	-0.133345142	0.098481547	0.05848429	0.059955336														
2.8	-0.131092746	0.100434415	0.058484479	0.059955529														
2.84	-0.128082726	0.101987525	0.058484909	0.05995597														
2.88	-0.124937714	0.103477857	0.058485158	0.059956226														
2.92	-0.122562716	0.104497246	0.05847069	0.059941394														
2.96	-0.120101137	0.105663418	0.058523318	0.059995345														
3	-0.115068979	0.106461175	0.058523717	0.059995754														
3.04	-0.109510867	0.106983113	0.058523776	0.059995815														
3.08	-0.106739517	0.107189787	0.058472864	0.059943622														
3.12	-0.099562705	0.107027789	0.058473131	0.059943896														
3.16	-0.091782736	0.106576921	0.058473374	0.059944145														
3.2	-0.084819448	0.106114318	0.058486685	0.05995779														
3.24	-0.076657601	0.105281876	0.058486665	0.05995777														
3.28	-0.067863459	0.103976131	0.058486661	0.059957766														
3.32	-0.059070125	0.102523488	0.058486556	0.059957658														
3.36	-0.0497116	0.100760473	0.058486695	0.059957801														
3.4	-0.040129926	0.098665397	0.058486795	0.059957904														
3.44	-0.030334099	0.09625993	0.05848682	0.059957929														
3.48	-0.022722619	0.093366709	0.058490987	0.059962201														
3.52	-0.013092912	0.090316251	0.058491037	0.059962253														
3.56	-0.004756681	0.086905522	0.058480314	0.059951259														
3.6	0.005167121	0.08318755	0.058480586	0.059951538														
3.64	0.014449132	0.079024238	0.058495121	0.059966439														
3.68	0.024043823	0.074656231	0.058495564	0.059966893														
3.72	0.033101553	0.069827352	0.058508995	0.059980662														
3.76	0.041992235	0.064680409	0.058523164	0.059995187														
3.8	0.051402352	0.059353458	0.058523447	0.059995477														
3.84	0.060570307	0.053749499	0.058523688	0.059995725														
3.88	0.069481566	0.047865036	0.058523895	0.059995936														
3.92	0.078768554	0.04153011	0.058524294	0.059996346														
3.96	0.086285365	0.035216183	0.058540234	0.060012687														
4	0.094754678	0.028652327	0.058540386	0.060012843														
4.04	0.10227236	0.021762394	0.058552795	0.060025563														
4.08	0.108862803	0.014698848	0.058541898	0.060014393														
4.12	0.11632232	0.007759297	0.058542032	0.06001453														
4.16	0.123530203	0.000756756	0.058541877	0.060014371														
4.2	0.130440971	-0.00628597	0.058541816	0.060014308														
4.24	0.137100738	-0.013298195	0.058541773	0.060014264														
4.28	0.143436442	-0.020241429	0.058541771	0.060014263														
4.32	0.148528952	-0.026978344	0.058552018	0.060024767														
4.36	0.153222784	-0.033722751	0.058564477	0.060037539														
4.4	0.158189879	-0.040114077	0.058564482	0.060037544														
4.44	0.162831033	-0.046239986	0.058564481	0.060037544														
4.48	0.166782736	-0.052008275	0.05856486	0.060037932														
4.52	0.170499126	-0.057436138	0.058565157	0.060038236														
4.56	0.173709285	-0.06244361	0.058565406	0.060038492														
4.6	0.174058419	-0.066974606	0.058567655	0.060040797														
4.64	0.176510294	-0.070977877	0.0585676	0.060040741														
4.68	0.178293274	-0.074448694	0.058568206	0.060041363														
4.72	0.180062411	-0.077370412	0.058568579	0.060041744														
4.76	0.181385409	-0.07974438	0.058568753	0.060041923														
4.8	0.182363059	-0.081543574	0.058568935	0.06004211														
4.84	0.183139995	-0.082775346	0.058568956	0.060042131														
4.88	0.182341383	-0.083644967	0.058557004	0.060029879														
4.92	0.181006372	-0.083739041	0.058546408	0.060019016														
4.96	0.181153903	-0.083267374	0.058546467	0.060019077														
5	0.180952264	-0.082314946	0.058546459	0.060019068														
5.04	0.178776616	-0.080930056	0.058532867	0.060005135														
5.08	0.178019071	-0.079074384	0.058533001	0.060005272														
5.12	0.177168756	-0.076861514	0.058533063	0.060005336														
5.16	0.17545961	-0.074315361	0.058545876	0.060018471														
5.2	0.173084758	-0.071603675	0.058535768	0.060008109														
5.24	0.170435028	-0.068688157	0.058523262	0.059995287														
5.28	0.169294826	-0.065572519	0.05852324	0.059995265														
5.32	0.166610251	-0.062420619	0.058513713	0.059985499														
5.36	0.165403671	-0.059236717	0.058513673	0.059985458														
5.4	0.16475284	-0.056313051	0.058513915	0.059985706														
5.44	0.163536959	-0.053354996	0.058513905	0.059985695														
5.48	0.160882193	-0.050777487	0.058501594	0.059973075														
5.52	0.159725733	-0.048195463	0.058501596	0.059973077														
5.56	0.158364836	-0.045852807	0.058501918	0.059973407														
5.6	0.157192348	-0.043826507	0.058501843	0.059973331														
5.64	0.155754135	-0.042177984	0.058502006	0.059973497														
5.68	0.152464557	-0.040867242	0.05848887	0.059960031														
5.72	0.151066417	-0.0398645	0.058488896	0.059960057														
5.76	0.149408732	-0.039225543	0.058489083	0.059960249														
5.8	0.14613987	-0.038954216	0.058478638	0.059949541														
5.84	0.14280781	-0.038970561	0.05846708	0.059937693														
5.88	0.141753241	-0.039635617	0.058468035	0.059938672														
5.92	0.139893881	-0.040223556	0.058468038	0.059938675														
5.96	0.137860942	-0.041054129	0.058468152	0.059938792														
6	0.135806589	-0.042130468	0.058468192	0.059938832														
6.04	0.132351285	-0.043642054	0.058456153	0.059926491														
6.08	0.130082847	-0.045063149	0.058456196	0.059926534														
6.12	0.126326015	-0.046652505	0.058447707	0.059917832														
6.16	0.123950522	-0.048271856	0.058447628	0.059917752														
6.2	0.119724017	-0.050001811	0.058437149	0.059907008														
6.24	0.117086263	-0.051746834	0.05843716	0.05990702														
6.28	0.114405324	-0.053545767	0.058437162	0.059907022														
6.32	0.109964762	-0.055260192	0.058479571	0.059950498														
6.36	0.107339219	-0.057097117	0.058479512	0.059950437														
6.4	0.104638008	-0.058900482	0.058479529	0.059950454														
6.44	0.102501903	-0.061062724	0.058480218	0.059951161														
6.48	0.09984226	-0.062849431	0.058480222	0.059951165														
6.52	0.097302686	-0.064799757	0.058480588	0.05995154														
6.56	0.094529149	-0.06650891	0.05848092	0.059951881														
6.6	0.091957367	-0.068187262	0.058480905	0.059951866														
6.64	0.089241501	-0.069799864	0.058480901	0.059951861														
6.68	0.086090829	-0.071719522	0.058474164	0.059944955														
6.72	0.083794904	-0.073165	0.058474265	0.059945059														
6.76	0.080002445	-0.074549421	0.058465002	0.059935563														
6.8	0.078033495	-0.0757111	0.058464934	0.059935493														
6.84	0.076072011	-0.076744052	0.058464969	0.059935528														
6.88	0.073183623	-0.077997609	0.058453522	0.059923794														
6.92	0.069946119	-0.078697547	0.05844353	0.05991355														
6.96	0.068532505	-0.079117715	0.058443563	0.059913584														
7	0.066377391	-0.079211248	0.058453225	0.059923489														
7.04	0.064819355	-0.079064069	0.058453225	0.059923489														
7.08	0.061764091	-0.078657804	0.058444065	0.059914099														
7.12	0.060830795	-0.078086735	0.058444008	0.05991404														
7.16	0.0594115	-0.077037328	0.058443928	0.059913958														
7.2	0.056990264	-0.075603531	0.058453975	0.059924258														
7.24	0.054636549	-0.073808004	0.058464588	0.059935138														
7.28	0.05152929	-0.07176116	0.058456236	0.059926576														
7.32	0.05001582	-0.069344592	0.058456058	0.059926393														
7.36	0.048528529	-0.066619669	0.05845572	0.059926047														
7.4	0.047180963	-0.063778521	0.058455787	0.059926116														
7.44	0.045144609	-0.060439808	0.058455949	0.059926281														
7.48	0.04252143	-0.056780234	0.05846621	0.059936801														
7.52	0.040779283	-0.05293182	0.058466251	0.059936843														
7.56	0.039572401	-0.049059187	0.058466009	0.059936595														
7.6	0.037057173	-0.044721824	0.05847646	0.059947308														
7.64	0.035745442	-0.040411313	0.058476419	0.059947266														
7.68	0.015356252	-0.026097042	0.059049009	0.060534258														
7.72	0.013447706	-0.020886933	0.059048547	0.060533785														
7.76	0.011358119	-0.015613616	0.05904856	0.060533798														
7.8	0.008059056	-0.010317282	0.059041076	0.060526126														
7.84	0.005573829	-0.004843984	0.059052023	0.060537349														
7.88	0.001965714	0.000466387	0.059057241	0.060542698														
7.92	-0.001972759	0.006040307	0.059058918	0.060544417														
7.96	-0.004015885	0.011355405	0.059051479	0.060536791														
8	-0.004792862	0.016860557	0.059051409	0.060536719														
8.04	-0.005562446	0.022329865	0.059051385	0.060536695														
8.08	-0.005820767	0.027749677	0.05905048	0.060535766														
8.12	-0.00620864	0.033082769	0.05905028	0.060535562														
8.16	-0.006562592	0.038296083	0.059049881	0.060535152														
8.2	-0.006667491	0.0433692	0.059049149	0.060534402														
8.24	-0.006877023	0.048131733	0.059049088	0.06053434														
8.28	-0.006957911	0.052731555	0.059048672	0.060533913														
8.32	-0.007746429	0.057391064	0.059048465	0.060533702														
8.36	-0.008490164	0.061830853	0.059048091	0.060533318														
8.4	-0.009455229	0.066047929	0.059047991	0.060533215														
8.44	-0.01048428	0.07004905	0.059047608	0.060532823														
8.48	-0.011852297	0.073845818	0.059047373	0.060532582														
8.52	-0.012874134	0.077207715	0.059046786	0.06053198														
8.56	-0.015961093	0.080462107	0.05904131	0.060526366														
8.6	-0.017966651	0.083404529	0.059041375	0.060526433														
8.64	-0.020111199	0.086043657	0.059041213	0.060526266														
8.68	-0.02254165	0.088352579	0.059040883	0.060525928														
8.72	-0.025976203	0.090329567	0.059049933	0.060535206														
8.76	-0.030165452	0.091882634	0.059045094	0.060530246														
8.8	-0.035665508	0.093138961	0.059046517	0.060531704														
8.84	-0.038947291	0.093977833	0.059046165	0.060531344														
8.88	-0.042644253	0.094425618	0.059046172	0.060531351														
8.92	-0.046356917	0.094461646	0.059045899	0.060531071														
8.96	-0.050191006	0.094093019	0.059045499	0.060530661														
9	-0.056542077	0.093329303	0.059046083	0.060531259														
9.04	-0.0623538	0.092167448	0.059036579	0.060521517														
9.08	-0.06576421	0.090505248	0.059035368	0.060520275														
9.12	-0.069992862	0.088675893	0.059034956	0.060519853														
9.16	-0.074235255	0.086511669	0.059034076	0.06051895														
9.2	-0.078519979	0.08403176	0.059034059	0.060518932														
9.24	-0.082661402	0.081210771	0.059034175	0.060519052														
9.28	-0.08703532	0.078149691	0.059033769	0.060518636														
9.32	-0.091203465	0.074845079	0.059032961	0.060517807														
9.36	-0.095100795	0.071336437	0.059031981	0.060516802														
9.4	-0.099222057	0.067680291	0.059031647	0.060516461														
9.44	-0.103980603	0.063978807	0.059041167	0.06052622														
9.48	-0.107760879	0.060149486	0.05904098	0.060526028														
9.52	-0.111106932	0.056347475	0.059040187	0.060525215														
9.56	-0.114262886	0.052538457	0.059039641	0.060524655														
9.6	-0.117119115	0.048816664	0.059039047	0.060524046														
9.64	-0.119677695	0.045246389	0.059038719	0.06052371														
9.68	-0.121441087	0.04183316	0.059036775	0.060521717														
9.72	-0.123211626	0.038571009	0.059036618	0.060521556														
9.76	-0.124745783	0.035568291	0.059036287	0.060521217														
9.8	-0.125979903	0.032778834	0.059035753	0.060520669														
9.84	-0.127758696	0.030298912	0.05904366	0.060528775														
9.88	-0.128156188	0.02801265	0.05904317	0.060528273														
9.92	-0.129060071	0.026083625	0.059050611	0.060535901														
9.96	-0.128638839	0.02435073	0.059049912	0.060535185														
10	-0.127980041	0.0228913	0.059049713	0.060534981														
10.04	-0.126894903	0.021699689	0.059048915	0.060534162														
10.08	-0.125414176	0.020766408	0.059048451	0.060533687														
10.12	-0.123620278	0.020026654	0.05904838	0.060533614														
10.16	-0.121488909	0.01955896	0.059047694	0.060532911														
10.2	-0.11882154	0.019298099	0.059046643	0.060531833														
10.24	-0.115147535	0.018865679	0.059046518	0.060531706														
10.28	-0.112765199	0.019044409	0.059053664	0.060539031														
10.32	-0.111111067	0.019471802	0.059090992	0.060577298														
10.36	-0.107388948	0.019950329	0.059089885	0.060576163														
10.4	-0.103528803	0.020520779	0.059089138	0.060575397														
10.44	-0.099556584	0.021142822	0.059088726	0.060574975														
10.48	-0.095226514	0.021764165	0.059088282	0.060574519														
10.52	-0.090846679	0.022406707	0.059087934	0.060574163														
10.56	-0.085908506	0.023000751	0.059086326	0.060572514														
10.6	-0.080881066	0.023507121	0.059085165	0.060571324														
10.64	-0.075730963	0.023910525	0.059084091	0.060570223														
10.68	-0.070412497	0.024152926	0.059082815	0.060568915														
10.72	-0.065258605	0.024271529	0.059083013	0.060569118														
10.76	-0.059859566	0.024215853	0.05908199	0.060568069														
10.8	-0.054286872	0.024021797	0.059081044	0.0605671														
10.84	-0.04882069	0.023629902	0.059079615	0.060565635														
10.88	-0.044317631	0.023169792	0.059084085	0.060570217														
10.92	-0.038753407	0.022274799	0.059083527	0.060569645														
10.96	-0.033796101	0.021418097	0.059083442	0.060569558														
11	-0.029218593	0.020459399	0.05908301	0.060569115														
11.04	-0.024633352	0.019415415	0.059082174	0.060568258														
11.08	-0.020234023	0.018267975	0.059081277	0.060567338														
11.12	-0.015724641	0.016866429	0.0590814	0.060567464														
11.16	-0.011609344	0.015452005	0.059080764	0.060566812														
11.2	-0.009051825	0.01433917	0.059088027	0.060574258														
11.24	-0.005983222	0.013210302	0.05908617	0.060572355														
11.28	-0.00445604	0.012217971	0.059096252	0.06058269														
11.32	-0.002136657	0.011199528	0.05909543	0.060581848														
11.36	-0.000286985	0.010279665	0.059094403	0.060580795														
11.4	0.000298667	0.009367609	0.059104273	0.060590912														
11.44	0.000472781	0.008775299	0.059111512	0.060598334														
11.48	0.001247692	0.008244232	0.059109476	0.060596247														
11.52	0.001979039	0.007612459	0.059108126	0.060594863														
11.56	0.001651293	0.007202383	0.059107812	0.060594541														
11.6	0.001005966	0.006882031	0.05910798	0.060594713														
11.64	0.00014701	0.006646943	0.059107351	0.060594069														
11.68	-0.002536806	0.00659026	0.059143598	0.060631227														
11.72	-0.003654252	0.00641245	0.059142683	0.060630288														
11.76	-0.00441676	0.006047161	0.059142151	0.060629743														
11.8	-0.005500675	0.005661499	0.059141913	0.0606295														
11.84	-0.006684804	0.005280153	0.059140605	0.060628159														
11.88	-0.008444967	0.005094183	0.05913968	0.06062721														
11.92	-0.010167158	0.004855284	0.059138376	0.060625874														
11.96	-0.011939951	0.004534839	0.05913835	0.060625847														
12	-0.014660387	0.004255791	0.059146505	0.060634207														
12.04	-0.016661243	0.003952179	0.059145791	0.060633475														
12.08	-0.018156114	0.003629005	0.059144098	0.060631739														
12.12	-0.019709478	0.003309636	0.05914387	0.060631506														
12.16	-0.021174696	0.003025876	0.059142809	0.060630418														
12.2	-0.022403082	0.002754338	0.059141821	0.060629405														
12.24	-0.023402598	0.002535189	0.059141092	0.060628658														
12.28	-0.024105909	0.002466778	0.059139117	0.060626633														
12.32	-0.024379789	0.002531368	0.059139863	0.060627398														
12.36	-0.024496419	0.002784141	0.059137591	0.060625069														
12.4	-0.025532744	0.003276174	0.05914521	0.060632879														
12.44	-0.025327267	0.003959174	0.059143809	0.060631443														
12.48	-0.025009121	0.004929059	0.059143022	0.060630636														
12.52	-0.024618702	0.006160601	0.059142852	0.060630462														
12.56	-0.023667291	0.007667624	0.059142301	0.060629897														
12.6	-0.023660721	0.009490598	0.059150582	0.060638387														
12.64	-0.021900369	0.01141922	0.059148597	0.060636352														
12.68	-0.020528706	0.01380587	0.059147849	0.060635585														
12.72	-0.01880076	0.016283412	0.059147503	0.06063523														
12.76	-0.017085554	0.019175896	0.0591474	0.060635125														
12.8	-0.015400281	0.022300711	0.05914689	0.060634602														
12.84	-0.013688292	0.02564834	0.05914607	0.060633761														
12.88	-0.011729872	0.029166299	0.059145211	0.06063288														
12.92	-0.009517628	0.032676618	0.059144928	0.060632591														
12.96	-0.007369878	0.036458729	0.059143742	0.060631374														
13	-0.005857888	0.040312447	0.059143458	0.060631083														
13.04	-0.003996152	0.044211572	0.059141835	0.060629419														
13.08	-0.003251659	0.048082166	0.059150362	0.060638161														
13.12	-0.002161936	0.051855144	0.059150188	0.060637983														
13.16	-0.002178554	0.055588621	0.059161759	0.060649845														
13.2	-0.000939703	0.059040534	0.059160323	0.060648372														
13.24	-0.000179092	0.062210178	0.059159491	0.06064752														
13.28	-0.000584092	0.065187426	0.059167011	0.060655229														
13.32	-0.000277088	0.06771912	0.059166184	0.060654381														
13.36	-0.000148492	0.069722934	0.059165311	0.060653486														
13.4	-0.000785032	0.07143869	0.059165092	0.060653261														
13.44	-0.001160779	0.072665922	0.059163839	0.060651977														
13.48	-0.002980626	0.073423603	0.059168979	0.060657246														
13.52	-0.004035199	0.073593028	0.059167741	0.060655977														
13.56	-0.006682929	0.073319065	0.059175701	0.060664137														
13.6	-0.008742708	0.07243653	0.059175329	0.060663756														
13.64	-0.011065898	0.071041045	0.059174231	0.06066263														
13.68	-0.013287114	0.068863306	0.059173702	0.060662088														
13.72	-0.015850089	0.066171465	0.059173848	0.060662238														
13.76	-0.018344979	0.063044809	0.059172631	0.06066099														
13.8	-0.021678394	0.059671884	0.059172198	0.060660547														
13.84	-0.024464056	0.055754536	0.059170967	0.060659285														
13.88	-0.028723097	0.051794489	0.059177991	0.060666485														
13.92	-0.031457762	0.047359036	0.059176208	0.060664657														
13.96	-0.034670377	0.042753524	0.059174671	0.060663082														
14	-0.039500617	0.038295496	0.059185138	0.060673812														
14.04	-0.043345018	0.0337582	0.059183624	0.060672259														
14.08	-0.047705003	0.029251555	0.059186226	0.060674927														
14.12	-0.051602482	0.024773379	0.059185348	0.060674027														
14.16	-0.055520482	0.020336745	0.059188197	0.060676948														
14.2	-0.060065944	0.016080163	0.059199141	0.060688167														
14.24	-0.063115913	0.011781963	0.05919832	0.060687326														
14.28	-0.067060915	0.008077207	0.059198019	0.060687017														
14.32	-0.070384888	0.004628172	0.059197058	0.060686032														
14.36	-0.074655863	0.001560319	0.059206627	0.060695841														
14.4	-0.077751505	-0.001215504	0.059205388	0.060694571														
14.44	-0.081460953	-0.003577318	0.059212747	0.060702115														
14.48	-0.083767503	-0.005643902	0.059211915	0.060701262														
14.52	-0.086318529	-0.007302733	0.05921149	0.060700827														
14.56	-0.089374027	-0.00852336	0.059222631	0.060712248														
14.6	-0.091928743	-0.009373304	0.059231905	0.060721755														
14.64	-0.093175516	-0.00984918	0.059229558	0.060719349														
14.68	-0.094217002	-0.010050844	0.059228838	0.060718611														
14.72	-0.094637524	-0.009906033	0.059228877	0.06071865														
14.76	-0.095423198	-0.009580569	0.059238295	0.060728306														
14.8	-0.094433315	-0.009182751	0.059237091	0.060727071														
14.84	-0.093322587	-0.008373517	0.059235279	0.060725214														
14.88	-0.092281924	-0.00716139	0.059234118	0.060724024														
14.92	-0.090494529	-0.005997195	0.059234088	0.060723993														
14.96	-0.088439654	-0.004482285	0.059233063	0.060722942														
15	-0.086101686	-0.002793981	0.059232214	0.060722072														
